,volume,bid,ask,avg_bid,avg_ask,last_trade
0,55958.000,129.450,129.630,129.025,129.301,129.510
1,7035.000,128.560,128.660,129.052,129.241,128.900
2,9838.000,128.430,128.760,128.408,128.576,128.690
3,9377.000,128.210,128.350,128.592,128.733,128.220
4,5278.000,128.370,128.520,128.207,128.380,128.480
5,6898.000,128.940,129.200,128.428,128.579,128.880
6,9272.000,128.110,128.190,128.488,128.670,128.160
7,5307.000,128.300,128.390,128.255,128.369,128.340
8,12687.000,128.170,128.250,128.202,128.292,128.230
9,8689.000,127.290,127.340,127.868,127.958,127.340
10,13475.000,127.440,127.550,127.055,127.163,127.380
11,7361.000,127.370,127.480,127.230,127.349,127.440
12,4614.000,127.160,127.200,127.411,127.503,127.160
13,6393.000,127.080,127.160,127.321,127.399,127.210
14,7100.000,127.030,127.100,126.938,127.015,127.050
15,7942.000,127.400,127.490,127.188,127.261,127.330
16,7028.000,127.160,127.270,127.287,127.351,127.190
17,6352.000,127.280,127.420,127.217,127.277,127.300
18,4195.000,127.460,127.510,127.537,127.618,127.410
19,4300.000,127.080,127.290,127.287,127.367,127.120
20,9136.000,126.640,126.870,126.811,126.907,126.830
21,3834.000,126.820,127.050,126.712,126.846,126.910
22,6988.000,126.420,126.480,126.627,126.724,126.470
23,16684.000,126.490,126.670,126.558,126.652,126.440
24,10236.000,126.470,126.550,126.414,126.541,126.520
25,9744.000,125.990,126.140,126.223,126.330,126.060
26,9775.000,125.610,125.730,125.689,125.795,125.630
27,10979.000,125.860,125.940,125.517,125.617,125.900
28,5250.000,126.530,126.650,126.252,126.358,126.590
29,4837.000,126.660,126.760,126.514,126.624,126.760
30,6702.000,126.950,127.040,126.908,127.005,126.980
31,6215.000,126.830,126.950,126.876,126.980,126.920
32,9293.000,126.750,126.840,126.751,126.849,126.810
33,13144.000,126.540,126.670,126.742,126.852,126.580
34,12371.000,126.190,126.240,126.414,126.515,126.220
35,9131.000,126.370,126.440,126.172,126.284,126.300
36,9254.000,126.130,126.210,126.225,126.308,126.180
37,10824.000,125.970,126.060,126.028,126.096,126.050
38,127122.000,126.150,126.160,126.156,126.201,126.150
39,62724.000,127.900,128.140,128.433,128.764,128.280
40,12859.000,127.840,128.010,127.881,128.077,128.020
41,30223.000,127.980,128.080,128.078,128.219,128.110
42,16605.000,127.320,127.360,127.628,127.762,127.440
43,11135.000,126.260,126.490,126.756,126.886,126.370
44,10267.000,126.200,126.260,126.393,126.542,126.290
45,22406.000,125.220,125.290,125.640,125.743,125.420
46,14574.000,125.150,125.210,124.984,125.094,125.030
47,6372.000,124.480,124.670,124.818,124.915,124.680
48,33802.000,123.860,123.950,124.337,124.435,123.920
49,8282.000,124.680,124.770,124.256,124.375,124.750
50,8830.000,124.810,124.860,124.716,124.801,124.810
51,14299.000,125.080,125.120,124.664,124.743,125.200
52,11109.000,125.900,125.980,125.618,125.705,125.980
53,9461.000,125.500,125.600,125.586,125.661,125.550
54,6399.000,125.710,125.800,125.492,125.569,125.610
55,7236.000,125.370,125.440,125.533,125.612,125.480
56,8891.000,125.240,125.290,125.184,125.258,125.270
57,11518.000,125.180,125.220,125.079,125.155,125.150
58,8988.000,125.120,125.140,125.171,125.234,125.120
59,8542.000,125.130,125.180,125.039,125.106,125.160
60,6006.000,125.150,125.210,125.201,125.279,125.090
61,9148.000,125.000,125.070,125.046,125.108,125.060
62,15144.000,125.090,125.170,124.932,124.984,125.080
63,12581.000,124.870,124.920,124.803,124.859,124.870
64,5273.000,125.210,125.260,125.065,125.132,125.120
65,5041.000,124.910,124.960,124.931,124.994,124.920
66,5382.000,124.560,124.730,124.594,124.664,124.580
67,7824.000,124.280,124.340,124.392,124.453,124.310
68,5833.000,123.930,123.960,124.060,124.122,123.950
69,37713.000,123.980,124.070,124.001,124.062,124.070
70,8541.000,123.610,123.690,123.812,123.873,123.670
71,6767.000,123.940,123.980,123.855,123.909,123.910
72,9207.000,123.760,123.800,123.733,123.787,123.780
73,10454.000,123.750,123.810,123.661,123.722,123.780
74,10101.000,123.530,123.560,123.624,123.676,123.550
75,14281.000,123.540,123.600,123.508,123.554,123.610
76,29076.000,123.860,123.920,123.624,123.663,123.860
77,89375.000,124.580,124.600,124.055,124.089,124.590
78,46039.000,125.420,125.620,125.561,125.836,125.540
79,12187.000,124.560,124.820,124.677,124.918,124.680
80,3850.000,124.010,124.210,124.229,124.438,124.100
81,5470.000,124.350,124.510,124.402,124.664,124.220
82,3632.000,123.590,123.820,123.984,124.178,123.770
83,2994.000,123.390,123.530,123.384,123.540,123.440
84,6321.000,123.120,123.230,123.093,123.220,123.120
85,9426.000,122.450,122.570,122.800,122.904,122.440
86,6610.000,122.930,123.020,122.686,122.791,122.950
87,7355.000,123.120,123.200,123.323,123.433,123.210
88,5475.000,123.530,123.630,123.243,123.346,123.550
89,4926.000,123.430,123.500,123.430,123.535,123.450
90,5011.000,123.210,123.330,123.284,123.376,123.270
91,7895.000,123.500,123.590,123.518,123.600,123.580
92,15784.000,123.770,123.840,123.499,123.577,123.800
93,9228.000,123.100,123.190,123.225,123.311,123.150
94,6767.000,122.930,122.990,123.121,123.204,122.970
95,7160.000,122.410,122.470,122.523,122.604,122.460
96,6039.000,122.260,122.340,122.307,122.378,122.280
97,14072.000,121.910,121.970,122.064,122.139,122.000
98,5591.000,122.420,122.490,122.223,122.297,122.460
99,6811.000,122.670,122.740,122.646,122.714,122.710
100,4951.000,122.050,122.120,122.543,122.614,122.330
101,6096.000,122.190,122.290,122.090,122.169,122.250
102,7912.000,122.340,122.410,122.264,122.333,122.350
103,8678.000,122.230,122.280,122.323,122.407,122.250
104,5573.000,122.370,122.410,122.370,122.441,122.430
105,5951.000,122.040,122.180,122.286,122.351,122.230
106,6031.000,122.300,122.330,122.223,122.305,122.330
107,5935.000,122.530,122.610,122.448,122.521,122.590
108,9320.000,122.800,122.850,122.696,122.769,122.780
109,5379.000,122.520,122.580,122.563,122.630,122.620
110,6161.000,122.490,122.580,122.433,122.500,122.550
111,11142.000,122.410,122.450,122.483,122.547,122.440
112,6314.000,122.530,122.660,122.487,122.547,122.560
113,7200.000,122.230,122.320,122.371,122.439,122.240
114,9163.000,121.950,122.000,122.170,122.219,121.990
115,16614.000,121.660,121.710,121.808,121.846,121.710
116,78981.000,121.660,121.710,121.618,121.650,121.670
117,49967.000,122.340,122.560,122.656,122.937,122.400
118,12037.000,123.110,123.360,122.907,123.105,123.190
119,6147.000,123.850,123.980,123.250,123.394,123.860
120,10364.000,124.820,124.910,124.454,124.590,124.920
121,5437.000,124.180,124.320,124.521,124.665,124.240
122,5769.000,124.330,124.450,124.397,124.533,124.420
123,8508.000,124.390,124.480,124.588,124.691,124.510
124,5700.000,124.490,124.580,124.670,124.768,124.650
125,5111.000,124.390,124.470,124.305,124.405,124.380
126,3952.000,124.330,124.420,124.186,124.298,124.390
127,5107.000,124.050,124.180,124.232,124.325,124.100
128,2634.000,124.300,124.410,124.284,124.384,124.380
129,5247.000,124.220,124.300,124.187,124.280,124.310
130,4398.000,124.230,124.330,124.113,124.217,124.230
131,2631.000,124.230,124.310,124.273,124.357,124.310
132,4197.000,124.350,124.410,124.382,124.468,124.490
133,6858.000,124.210,124.300,124.082,124.160,124.270
134,4256.000,124.070,124.160,123.990,124.083,124.150
135,4777.000,124.080,124.180,123.940,124.021,124.110
136,2856.000,124.120,124.180,123.971,124.054,124.200
137,11211.000,124.170,124.240,124.244,124.328,124.210
138,7160.000,124.200,124.280,123.979,124.059,124.200
139,3782.000,124.190,124.250,124.072,124.151,124.200
140,3701.000,123.630,123.710,123.788,123.860,123.600
141,3389.000,123.830,123.890,123.791,123.868,123.850
142,4006.000,124.160,124.200,124.030,124.095,124.180
143,3851.000,124.380,124.490,124.203,124.286,124.330
144,5013.000,124.190,124.270,124.343,124.406,124.230
145,4279.000,124.180,124.230,124.188,124.259,124.160
146,2524.000,124.090,124.140,124.194,124.264,124.140
147,5277.000,124.210,124.260,124.068,124.129,124.240
148,8602.000,124.240,124.280,124.216,124.263,124.260
149,18049.000,124.340,124.370,124.348,124.404,124.380
150,11272.000,124.330,124.400,124.349,124.416,124.400
151,38218.000,124.290,124.340,124.274,124.328,124.280
152,31127.000,124.180,124.280,124.226,124.280,124.230
153,39697.000,124.300,124.380,124.371,124.410,124.340
154,18468.000,124.020,124.040,124.220,124.255,124.040
155,78366.000,124.110,124.140,124.054,124.080,124.110
156,105421.000,127.340,127.540,127.768,128.103,127.460
157,44537.000,127.000,127.140,127.212,127.414,127.020
158,60898.000,127.890,128.040,127.504,127.694,127.970
159,8126.000,128.000,128.120,127.912,128.081,128.050
160,7240.000,127.220,127.400,127.366,127.527,127.250
161,9328.000,127.280,127.390,127.314,127.454,127.340
162,6267.000,127.090,127.250,127.274,127.407,127.180
163,9244.000,126.720,126.870,127.033,127.145,126.910
164,6286.000,126.370,126.450,126.590,126.700,126.410
165,8216.000,126.590,126.710,126.799,126.900,126.680
166,9820.000,127.000,127.060,126.899,126.994,127.030
167,4686.000,127.170,127.260,127.048,127.151,127.220
168,33709.000,127.700,127.790,127.484,127.600,127.700
169,6961.000,127.790,127.870,127.920,128.016,127.810
170,8794.000,127.820,127.890,127.637,127.728,127.880
171,22078.000,128.190,128.250,128.049,128.134,128.240
172,6003.000,127.200,127.270,127.723,127.821,127.210
173,8504.000,127.550,127.630,127.441,127.536,127.610
174,4579.000,127.740,127.830,127.694,127.801,127.750
175,9578.000,127.200,127.280,127.642,127.731,127.220
176,5253.000,127.180,127.280,127.176,127.268,127.180
177,9017.000,127.340,127.420,127.307,127.393,127.300
178,10530.000,127.860,127.940,127.719,127.793,127.910
179,7276.000,127.750,127.810,127.908,127.986,127.770
180,9065.000,127.590,127.660,127.660,127.726,127.700
181,7178.000,127.640,127.680,127.647,127.714,127.670
182,6505.000,127.870,127.920,127.600,127.670,127.900
183,8805.000,127.660,127.740,127.870,127.934,127.660
184,6014.000,127.720,127.760,127.768,127.832,127.710
185,8276.000,127.790,127.870,127.696,127.764,127.860
186,7490.000,127.830,127.890,127.826,127.891,127.870
187,6991.000,127.940,127.980,127.940,127.998,128.010
188,11021.000,127.570,127.730,127.723,127.781,127.710
189,6476.000,127.660,127.710,127.584,127.649,127.680
190,8372.000,127.700,127.720,127.635,127.688,127.700
191,6978.000,127.950,127.960,127.845,127.899,127.960
192,10230.000,127.600,127.630,127.753,127.798,127.630
193,32285.000,127.840,127.860,127.699,127.734,127.840
194,135202.000,127.490,127.510,127.783,127.813,127.500
195,63246.000,128.630,128.740,128.434,128.720,128.680
196,13869.000,127.620,127.940,128.201,128.390,127.710
197,5687.000,127.290,127.420,127.550,127.703,127.420
198,6382.000,126.730,126.870,127.097,127.215,126.890
199,5939.000,126.490,126.570,126.541,126.640,126.550
200,6935.000,126.310,126.480,126.386,126.502,126.300
201,29227.000,124.970,125.080,125.208,125.366,125.030
202,5293.000,125.850,125.950,125.605,125.722,125.940
203,6675.000,125.970,126.060,125.910,126.023,125.880
204,5153.000,126.310,126.360,126.111,126.217,126.310
205,27094.000,126.680,126.740,126.334,126.417,126.690
206,9258.000,126.920,127.060,126.810,126.900,126.970
207,5661.000,126.740,126.790,126.839,126.921,126.740
208,3641.000,126.540,126.600,126.741,126.819,126.570
209,5777.000,126.660,126.760,126.400,126.475,126.710
210,1565.000,126.770,126.840,126.864,126.953,126.980
211,3107.000,126.740,126.810,126.731,126.825,126.780
212,3479.000,127.070,127.160,126.770,126.855,127.040
213,2119.000,126.990,127.060,126.982,127.068,127.130
214,4189.000,127.190,127.230,127.108,127.180,127.190
215,3555.000,126.970,127.030,127.095,127.160,127.000
216,3582.000,127.220,127.330,127.252,127.313,127.320
217,4426.000,127.060,127.170,127.268,127.335,127.140
218,5960.000,127.350,127.390,127.299,127.365,127.450
219,3461.000,127.420,127.480,127.325,127.390,127.430
220,7669.000,127.660,127.740,127.552,127.616,127.680
221,5460.000,127.910,128.040,127.819,127.895,127.940
222,8481.000,126.370,126.490,126.671,126.947,126.430
223,10264.000,127.160,127.290,126.709,126.844,127.200
224,5896.000,127.410,127.510,127.153,127.262,127.410
225,12415.000,126.600,126.690,127.068,127.207,126.500
226,11888.000,126.840,126.970,126.710,126.896,127.040
227,2611.000,126.690,126.810,126.599,126.755,126.610
228,5792.000,127.660,127.800,127.279,127.429,127.810
229,6350.000,127.500,127.600,127.840,127.969,127.590
230,5785.000,126.760,126.880,127.320,127.423,126.990
231,8569.000,126.510,126.570,126.463,126.556,126.470
232,18468.000,126.420,126.490,126.470,126.530,126.460
233,88049.000,125.970,125.980,126.413,126.448,125.920
234,62142.000,125.020,125.160,124.201,124.531,124.970
235,10539.000,124.970,125.210,125.052,125.294,125.080
236,8241.000,124.720,124.900,125.131,125.304,124.750
237,8621.000,124.360,124.450,124.663,124.802,124.380
238,7326.000,124.780,124.850,124.328,124.434,124.690
239,6692.000,124.930,125.020,124.765,124.873,124.930
240,6780.000,125.310,125.520,125.068,125.181,125.470
241,10649.000,125.310,125.390,125.552,125.659,125.370
242,4494.000,125.440,125.500,125.281,125.398,125.340
243,6627.000,125.190,125.290,125.567,125.671,125.290
244,4986.000,124.940,125.040,124.967,125.068,125.040
245,7344.000,124.280,124.370,124.612,124.702,124.300
246,6136.000,123.880,123.920,124.016,124.103,123.920
247,6365.000,123.830,123.880,123.715,123.791,123.820
248,5908.000,124.230,124.280,124.077,124.153,124.250
249,4079.000,124.750,124.850,124.441,124.519,124.820
250,7658.000,125.050,125.110,124.944,125.024,125.060
251,5905.000,125.260,125.340,125.150,125.228,125.310
252,5059.000,125.120,125.210,125.267,125.342,125.200
253,6027.000,125.170,125.210,125.183,125.252,125.200
254,5047.000,125.710,125.820,125.464,125.534,125.720
255,3036.000,125.570,125.630,125.594,125.671,125.530
256,4826.000,125.320,125.370,125.612,125.677,125.390
257,2509.000,125.590,125.650,125.440,125.514,125.650
258,5905.000,125.840,125.940,125.692,125.760,125.870
259,6746.000,125.340,125.430,125.665,125.726,125.370
260,5804.000,125.600,125.700,125.509,125.579,125.670
261,2208.000,125.360,125.430,125.583,125.653,125.380
262,4088.000,125.680,125.730,125.613,125.683,125.710
263,4257.000,125.630,125.680,125.661,125.729,125.620
264,10491.000,126.030,126.130,125.811,125.876,126.060
265,15890.000,125.610,125.660,125.831,125.907,125.640
266,8165.000,126.160,126.220,125.784,125.848,126.150
267,5889.000,126.110,126.180,125.998,126.057,126.100
268,21079.000,126.170,126.270,126.082,126.156,126.210
269,6158.000,126.190,126.230,126.189,126.257,126.230
270,16999.000,126.430,126.480,126.379,126.438,126.430
271,24240.000,126.480,126.520,126.526,126.581,126.510
272,84702.000,126.630,126.670,126.497,126.533,126.640
273,591231.000,123.530,123.740,124.732,125.040,123.570
274,16436.000,123.400,123.590,123.322,123.543,123.500
275,5551.000,123.750,123.920,123.520,123.732,124.080
276,6673.000,123.490,123.630,123.593,123.792,123.650
277,7988.000,123.130,123.230,123.149,123.320,123.030
278,9081.000,122.880,122.960,123.145,123.264,122.910
279,11872.000,122.650,122.720,122.608,122.709,122.780
280,9397.000,123.000,123.050,122.823,122.925,123.000
281,35706.000,122.880,122.980,122.778,122.874,122.870
282,4026.000,123.620,123.710,123.261,123.389,123.580
283,9926.000,123.630,123.710,123.510,123.613,123.650
284,6618.000,123.860,123.970,123.763,123.856,123.990
285,10064.000,124.080,124.160,123.970,124.063,124.140
286,5600.000,123.810,123.880,124.033,124.114,124.040
287,12916.000,123.640,123.760,123.700,123.783,123.680
288,12261.000,124.260,124.360,124.443,124.556,124.330
289,12274.000,124.170,124.230,123.979,124.057,124.200
290,8069.000,123.840,123.910,123.943,124.007,123.840
291,9079.000,124.030,124.100,124.119,124.182,124.050
292,5136.000,124.260,124.300,124.028,124.098,124.270
293,7941.000,123.800,123.850,124.023,124.094,123.830
294,6665.000,124.000,124.050,123.846,123.904,124.050
295,12071.000,123.860,123.910,123.955,124.006,123.880
296,8117.000,124.220,124.260,123.954,124.012,124.210
297,6143.000,124.190,124.240,124.326,124.378,124.340
298,4851.000,124.080,124.150,124.023,124.076,124.090
299,7526.000,124.390,124.430,124.162,124.217,124.390
300,15537.000,124.400,124.460,124.382,124.431,124.430
301,12815.000,124.730,124.790,124.629,124.674,124.740
302,6922.000,124.860,124.910,124.678,124.722,124.880
303,8832.000,124.670,124.730,124.811,124.856,124.740
304,7556.000,124.970,125.000,124.853,124.895,124.950
305,23832.000,125.250,125.280,125.177,125.211,125.260
306,17555.000,125.040,125.110,125.068,125.107,125.060
307,9367.000,125.520,125.560,125.387,125.431,125.570
308,12125.000,125.890,125.910,125.706,125.753,125.880
309,29837.000,126.310,126.330,126.139,126.175,126.330
310,49913.000,126.130,126.210,126.185,126.214,126.150
311,309850.000,125.690,125.700,125.640,125.674,125.730
312,45093.000,126.340,126.500,126.832,127.102,126.380
313,9054.000,125.930,126.030,125.834,126.026,125.980
314,10874.000,125.740,125.840,125.660,125.835,125.710
315,4846.000,126.510,126.660,126.098,126.292,126.630
316,2433.000,126.270,126.420,126.292,126.467,126.400
317,2144.000,125.730,125.970,126.039,126.173,125.780
318,3840.000,125.270,125.350,125.456,125.605,125.300
319,6060.000,125.570,125.690,125.520,125.622,125.640
320,4413.000,125.400,125.470,125.422,125.521,125.390
321,2831.000,125.510,125.600,125.572,125.676,125.660
322,3533.000,125.890,125.960,125.711,125.810,125.900
323,3895.000,126.350,126.420,126.223,126.321,126.420
324,2729.000,126.220,126.310,126.367,126.463,126.280
325,5274.000,126.450,126.540,126.465,126.534,126.500
326,2590.000,126.320,126.390,126.367,126.439,126.360
327,2077.000,126.220,126.300,126.344,126.409,126.280
328,2120.000,126.220,126.270,126.326,126.382,126.250
329,3054.000,126.210,126.280,126.218,126.283,126.240
330,2502.000,126.160,126.220,126.272,126.341,126.300
331,3056.000,125.620,125.680,125.770,125.844,125.680
332,2082.000,125.820,125.880,125.658,125.732,125.740
333,4311.000,125.790,125.850,125.740,125.810,125.790
334,3184.000,125.880,125.950,125.749,125.816,125.810
335,3989.000,125.700,125.800,125.821,125.889,125.770
336,1318.000,125.720,125.760,125.673,125.741,125.720
337,2308.000,125.820,125.880,125.614,125.674,125.820
338,2001.000,125.850,125.910,125.806,125.865,125.900
339,3088.000,125.530,125.600,125.676,125.735,125.590
340,3255.000,125.360,125.470,125.412,125.481,125.410
341,3911.000,124.720,124.770,125.139,125.206,124.730
342,3134.000,124.750,124.840,124.658,124.730,124.780
343,2161.000,124.600,124.650,124.698,124.769,124.590
344,3746.000,124.590,124.630,124.565,124.623,124.620
345,3630.000,124.660,124.680,124.594,124.645,124.660
346,3146.000,125.110,125.140,124.876,124.928,125.100
347,5141.000,125.250,125.280,125.087,125.134,125.280
348,7402.000,125.290,125.320,125.377,125.413,125.330
349,14768.000,125.570,125.610,125.469,125.500,125.590
350,53379.000,125.520,125.540,125.579,125.605,125.520
351,43716.000,126.050,126.210,125.549,125.775,126.150
352,6825.000,126.150,126.360,126.202,126.383,126.380
353,2720.000,126.400,126.510,126.155,126.333,126.420
354,3348.000,126.720,126.860,126.612,126.747,126.870
355,4536.000,127.210,127.320,127.022,127.146,127.260
356,5597.000,127.230,127.320,127.316,127.426,127.280
357,5789.000,127.780,127.880,127.568,127.673,127.960
358,2470.000,127.150,127.340,127.270,127.375,127.230
359,2909.000,127.620,127.710,127.408,127.528,127.660
360,2835.000,127.130,127.210,127.217,127.347,127.180
361,2193.000,127.070,127.180,127.089,127.234,127.070
362,2605.000,126.720,126.820,127.117,127.252,126.880
363,2324.000,126.860,126.950,126.835,126.941,126.870
364,2172.000,126.900,126.960,126.929,127.013,126.870
365,3828.000,127.000,127.080,126.967,127.051,127.040
366,2346.000,126.810,126.880,126.895,126.973,126.850
367,2554.000,126.350,126.450,126.695,126.770,126.470
368,2400.000,126.180,126.260,126.318,126.399,126.200
369,2202.000,125.890,125.990,126.057,126.135,125.920
370,3068.000,126.250,126.380,126.095,126.176,126.280
371,1207.000,126.620,126.710,126.442,126.518,126.680
372,1287.000,126.850,126.920,126.765,126.845,126.920
373,1306.000,127.170,127.230,126.941,127.021,127.150
374,1914.000,127.470,127.550,127.338,127.420,127.510
375,2741.000,127.660,127.790,127.586,127.670,127.710
376,2409.000,127.520,127.590,127.685,127.757,127.560
377,4835.000,127.490,127.560,127.645,127.725,127.510
378,1475.000,127.460,127.550,127.553,127.637,127.600
379,1600.000,127.460,127.560,127.507,127.584,127.500
380,2383.000,127.140,127.230,127.256,127.337,127.140
381,2119.000,127.110,127.150,127.115,127.188,127.120
382,1819.000,127.160,127.220,127.137,127.204,127.190
383,3353.000,126.900,126.980,127.045,127.102,126.920
384,3200.000,126.750,126.830,126.766,126.828,126.790
385,2316.000,126.590,126.640,126.656,126.719,126.610
386,2968.000,126.690,126.720,126.612,126.666,126.710
387,5419.000,126.970,127.020,126.817,126.856,126.960
388,12982.000,126.940,126.970,126.999,127.033,126.960
389,46714.000,126.490,126.500,126.590,126.617,126.490
390,63707.000,128.030,128.190,128.654,128.859,128.060
391,10245.000,127.400,127.530,127.790,127.950,127.460
392,6379.000,127.460,127.590,127.499,127.639,127.580
393,1420.000,127.810,127.900,127.567,127.714,127.850
394,3405.000,127.830,127.950,127.814,127.936,127.820
395,2204.000,128.080,128.210,127.952,128.086,128.080
396,5592.000,129.090,129.190,128.660,128.811,129.040
397,5563.000,129.370,129.440,129.278,129.370,129.400
398,3059.000,129.300,129.410,129.453,129.543,129.310
399,4534.000,129.200,129.290,129.338,129.423,129.290
400,2444.000,128.860,129.010,129.114,129.229,129.130
401,2135.000,128.760,128.830,128.725,128.860,128.830
402,3446.000,128.430,128.510,128.560,128.661,128.480
403,1713.000,128.820,128.910,128.540,128.620,128.870
404,2111.000,128.790,128.860,128.725,128.806,128.710
405,1425.000,128.900,128.970,128.832,128.908,129.000
406,1846.000,129.030,129.110,129.054,129.127,129.080
407,1410.000,128.970,129.070,128.973,129.060,128.970
408,1253.000,129.410,129.510,129.261,129.339,129.440
409,2560.000,129.350,129.440,129.359,129.437,129.320
410,2323.000,129.550,129.600,129.458,129.525,129.570
411,2542.000,129.640,129.700,129.548,129.617,129.650
412,2352.000,129.860,129.900,129.692,129.755,129.770
413,1909.000,129.420,129.480,129.607,129.683,129.610
414,1202.000,129.370,129.440,129.334,129.409,129.360
415,1025.000,129.530,129.620,129.420,129.496,129.580
416,2122.000,129.850,129.900,129.789,129.859,129.870
417,7899.000,130.090,130.180,130.127,130.184,130.350
418,2642.000,130.180,130.240,130.057,130.134,130.190
419,900.000,129.790,129.860,129.997,130.078,129.850
420,1893.000,129.980,130.040,129.910,129.985,130.040
421,2637.000,130.080,130.150,130.070,130.130,130.150
422,2657.000,130.040,130.090,129.958,130.020,129.990
423,3771.000,129.870,129.900,130.000,130.055,129.870
424,6462.000,129.760,129.820,129.898,129.950,129.760
425,4034.000,129.560,129.610,129.752,129.796,129.600
426,7442.000,129.800,129.830,129.630,129.665,129.820
427,11384.000,129.760,129.800,129.732,129.762,129.790
428,106736.000,129.900,129.920,129.539,129.563,129.980
429,46485.000,128.250,128.440,129.144,129.400,128.320
430,4355.000,127.960,128.150,128.069,128.263,128.060
431,3681.000,127.540,127.740,127.719,127.893,127.720
432,3315.000,126.900,127.250,127.260,127.429,127.120
433,1620.000,126.950,127.110,127.011,127.169,127.290
434,1010.000,126.450,126.550,126.626,126.777,126.500
435,3151.000,126.150,126.270,126.247,126.384,126.250
436,1560.000,125.590,125.730,125.975,126.095,125.830
437,1541.000,125.270,125.330,125.516,125.627,125.400
438,2718.000,125.270,125.440,125.346,125.473,125.370
439,2872.000,125.820,126.000,125.566,125.720,125.940
440,1411.000,126.040,126.230,126.011,126.179,126.190
441,1810.000,125.840,125.910,126.066,126.192,125.880
442,3127.000,125.770,125.820,125.854,125.956,125.810
443,3319.000,125.620,125.710,125.488,125.592,125.690
444,2435.000,125.450,125.570,125.410,125.513,125.490
445,4677.000,125.190,125.270,125.245,125.351,125.180
446,7078.000,125.220,125.320,125.143,125.245,125.220
447,3140.000,125.290,125.370,125.249,125.348,125.290
448,2298.000,125.030,125.180,125.105,125.210,125.030
449,4574.000,124.480,124.560,124.788,124.881,124.530
450,3465.000,124.310,124.480,124.349,124.445,124.310
451,6740.000,124.660,124.750,124.470,124.565,124.720
452,2413.000,124.310,124.390,124.558,124.654,124.450
453,5016.000,124.370,124.510,124.289,124.390,124.400
454,3790.000,123.830,124.020,124.024,124.111,123.820
455,3697.000,123.750,123.840,123.746,123.845,123.820
456,2840.000,123.330,123.410,123.644,123.742,123.400
457,3790.000,123.610,123.660,123.522,123.619,123.640
458,3690.000,124.210,124.330,123.834,123.930,124.240
459,4719.000,124.830,124.950,124.650,124.748,124.850
460,3792.000,125.660,125.730,125.186,125.285,125.710
461,2084.000,125.830,125.940,125.569,125.670,125.930
462,3270.000,126.200,126.330,125.948,126.043,126.320
463,4850.000,126.330,126.450,126.185,126.277,126.360
464,7638.000,127.070,127.110,126.776,126.853,127.070
465,4694.000,126.230,126.300,126.511,126.587,126.250
466,13143.000,126.470,126.500,126.116,126.172,126.460
467,71262.000,126.300,126.350,126.339,126.368,126.310
468,38310.000,127.700,127.850,128.077,128.335,128.110
469,6867.000,128.260,128.370,127.947,128.170,128.370
470,1306.000,128.250,128.380,128.244,128.486,128.410
471,3053.000,128.750,129.000,128.653,128.908,128.980
472,4914.000,129.570,129.730,129.112,129.280,129.630
473,4146.000,129.750,129.860,129.624,129.777,129.710
474,3678.000,129.930,130.030,130.043,130.150,130.140
475,3109.000,129.650,129.770,129.690,129.799,129.570
476,1307.000,129.520,129.650,129.603,129.730,129.680
477,2291.000,129.440,129.590,129.497,129.605,129.450
478,1750.000,129.530,129.660,129.631,129.747,129.600
479,3406.000,129.400,129.470,129.657,129.752,129.590
480,1445.000,129.610,129.780,129.466,129.574,129.540
481,1209.000,129.540,129.640,129.609,129.699,129.690
482,800.000,129.710,129.800,129.714,129.806,129.800
483,1411.000,129.620,129.700,129.670,129.782,129.680
484,1789.000,129.900,129.950,129.707,129.794,129.990
485,1735.000,129.880,129.920,129.913,129.992,129.890
486,1055.000,130.000,130.070,129.907,129.985,130.020
487,2223.000,129.780,129.830,129.833,129.919,129.820
488,598.000,129.750,129.800,129.755,129.832,129.800
489,2331.000,129.600,129.730,129.661,129.740,129.620
490,1363.000,129.590,129.680,129.508,129.587,129.630
491,968.000,129.780,129.820,129.607,129.672,129.820
492,2449.000,129.850,129.890,129.841,129.900,129.840
493,1723.000,129.780,129.840,129.741,129.805,129.780
494,1120.000,129.740,129.780,129.830,129.895,129.800
495,1411.000,129.610,129.680,129.725,129.790,129.730
496,2047.000,129.400,129.450,129.449,129.517,129.440
497,2906.000,129.460,129.560,129.285,129.366,129.540
498,2600.000,129.560,129.640,129.575,129.649,129.690
499,1213.000,129.620,129.680,129.549,129.617,129.660
500,1819.000,129.830,129.890,129.770,129.832,129.890
501,1689.000,130.020,130.060,129.886,129.939,130.040
502,3485.000,130.080,130.150,130.096,130.145,130.140
503,1945.000,130.200,130.220,130.079,130.127,130.190
504,5993.000,130.270,130.290,130.297,130.332,130.270
505,8461.000,130.550,130.600,130.486,130.516,130.590
506,44505.000,130.600,130.620,130.413,130.434,130.610
507,42536.000,130.500,130.640,130.788,131.021,130.780
508,7560.000,130.630,130.770,130.953,131.149,130.730
509,3338.000,131.010,131.150,130.857,130.987,131.080
510,3102.000,130.930,131.020,130.981,131.074,130.950
511,3365.000,131.290,131.370,131.193,131.301,131.320
512,1474.000,131.730,131.850,131.551,131.663,131.580
513,3411.000,131.510,131.600,131.771,131.864,131.620
514,2434.000,131.730,131.810,131.571,131.662,131.770
515,3610.000,131.240,131.300,131.410,131.490,131.240
516,2514.000,131.600,131.680,131.421,131.497,131.630
517,2337.000,131.550,131.620,131.552,131.627,131.560
518,1788.000,131.650,131.690,131.580,131.668,131.660
519,1971.000,131.880,131.950,131.682,131.760,131.650
520,2929.000,131.670,131.730,131.866,131.947,131.690
521,1040.000,131.990,132.040,131.924,132.003,132.140
522,1696.000,131.540,131.580,131.841,131.906,131.530
523,650.000,131.740,131.820,131.625,131.707,131.720
524,1641.000,131.690,131.790,131.614,131.690,131.670
525,2092.000,131.590,131.670,131.608,131.672,131.640
526,1474.000,131.470,131.520,131.424,131.491,131.480
527,926.000,131.480,131.530,131.430,131.496,131.560
528,1269.000,131.420,131.520,131.465,131.537,131.540
529,1860.000,131.760,131.830,131.613,131.675,131.830
530,2204.000,131.800,131.850,131.733,131.792,131.770
531,2089.000,131.880,131.930,131.827,131.882,131.950
532,1968.000,132.230,132.300,132.116,132.167,132.280
533,3443.000,131.750,131.790,132.027,132.073,131.780
534,1787.000,131.320,131.380,131.584,131.632,131.390
535,3207.000,131.060,131.120,131.198,131.246,131.160
536,5092.000,130.790,130.860,130.932,130.984,130.890
537,808.000,130.980,131.030,130.904,130.954,131.030
538,4494.000,131.410,131.480,131.208,131.257,131.440
539,2163.000,131.640,131.680,131.503,131.550,131.600
540,2677.000,131.590,131.600,131.617,131.660,131.570
541,2270.000,131.790,131.840,131.723,131.765,131.840
542,3681.000,131.910,131.960,131.832,131.874,131.930
543,5390.000,131.780,131.820,131.700,131.731,131.740
544,7389.000,131.670,131.710,131.804,131.833,131.770
545,108224.000,132.050,132.080,131.890,131.916,132.060
546,46075.000,130.700,130.890,130.746,131.042,130.840
547,3365.000,130.930,131.110,130.858,131.036,131.080
548,3442.000,129.600,129.730,130.124,130.331,129.830
549,4498.000,129.150,129.380,129.588,129.769,129.400
550,4122.000,128.470,128.630,128.919,129.077,128.490
551,2405.000,128.200,128.370,128.365,128.517,128.320
552,2959.000,128.860,128.950,128.449,128.571,128.870
553,2520.000,128.690,128.820,128.612,128.732,128.740
554,3234.000,128.660,128.750,128.670,128.767,128.680
555,3686.000,128.190,128.300,128.447,128.565,128.200
556,1498.000,128.450,128.600,128.183,128.285,128.080
557,2521.000,128.770,128.900,128.673,128.774,128.800
558,1982.000,128.730,128.870,128.777,128.865,128.860
559,1872.000,128.530,128.630,128.619,128.708,128.620
560,1270.000,127.960,128.030,128.240,128.327,128.030
561,1381.000,127.880,127.960,127.728,127.819,127.990
562,900.000,127.820,127.910,127.943,128.029,127.890
563,2162.000,128.100,128.190,127.953,128.031,128.130
564,1225.000,128.440,128.530,128.312,128.389,128.490
565,1787.000,128.470,128.530,128.337,128.415,128.500
566,1963.000,128.660,128.760,128.597,128.663,128.770
567,3057.000,128.860,128.930,128.901,128.976,128.920
568,2755.000,128.560,128.620,128.748,128.816,128.680
569,2959.000,128.450,128.520,128.407,128.477,128.510
570,2782.000,128.210,128.270,128.330,128.406,128.300
571,2976.000,128.420,128.520,128.210,128.280,128.540
572,3356.000,128.620,128.670,128.501,128.572,128.580
573,3250.000,128.210,128.270,128.284,128.353,128.220
574,2619.000,128.080,128.160,128.006,128.078,128.070
575,3105.000,128.160,128.240,128.081,128.155,128.260
576,2587.000,128.760,128.800,128.498,128.562,128.680
577,5418.000,128.600,128.670,128.806,128.864,128.690
578,5492.000,128.430,128.480,128.555,128.612,128.450
579,4160.000,128.100,128.140,128.291,128.352,128.140
580,7362.000,127.750,127.810,127.883,127.940,127.770
581,8163.000,127.210,127.230,127.478,127.525,127.210
582,11748.000,127.280,127.320,127.239,127.280,127.310
583,15132.000,127.270,127.360,127.152,127.186,127.360
584,63544.000,127.380,127.390,127.400,127.428,127.390
585,28694.000,128.080,128.290,127.548,127.889,128.360
586,1788.000,128.120,128.500,127.891,128.205,127.940
587,200.000,128.020,128.260,128.069,128.271,127.980
588,801.000,128.100,128.230,128.180,128.386,128.340
589,517.000,128.540,128.670,128.327,128.491,128.550
590,1116.000,128.380,128.510,128.468,128.602,128.450
591,2791.000,128.390,128.510,128.399,128.507,128.430
592,1284.000,127.970,128.110,128.105,128.208,128.090
593,1013.000,127.950,128.200,128.158,128.264,128.130
594,2516.000,127.780,127.870,127.615,127.778,127.640
595,1422.000,127.970,128.070,127.947,128.047,128.030
596,2706.000,128.030,128.110,127.979,128.069,128.090
597,2059.000,128.070,128.140,128.182,128.266,128.150
598,1543.000,128.500,128.560,128.188,128.266,128.510
599,2908.000,128.150,128.210,128.346,128.417,128.220
600,4205.000,128.210,128.280,128.254,128.322,128.290
601,1331.000,128.190,128.240,128.134,128.208,128.200
602,2920.000,127.960,128.030,128.153,128.211,128.090
603,4264.000,127.670,127.710,127.876,127.934,127.730
604,4401.000,128.090,128.130,127.952,128.016,128.080
605,4153.000,128.400,128.490,128.301,128.361,128.510
606,2669.000,128.420,128.460,128.402,128.469,128.460
607,1261.000,128.260,128.330,128.373,128.433,128.250
608,3503.000,128.470,128.520,128.420,128.471,128.460
609,4090.000,128.580,128.610,128.480,128.539,128.550
610,2573.000,128.310,128.330,128.523,128.577,128.330
611,4236.000,128.480,128.520,128.309,128.369,128.460
612,4317.000,128.620,128.650,128.576,128.638,128.640
613,4502.000,129.140,129.210,128.950,129.008,129.200
614,4155.000,128.850,128.900,129.061,129.127,128.880
615,4289.000,128.760,128.830,128.733,128.812,128.810
616,3922.000,128.690,128.750,128.686,128.761,128.690
617,4199.000,128.760,128.790,128.724,128.787,128.790
618,2489.000,128.900,128.970,128.935,128.999,128.930
619,3060.000,128.710,128.760,128.745,128.815,128.760
620,5834.000,128.730,128.760,128.583,128.636,128.710
621,3955.000,128.570,128.610,128.737,128.798,128.600
622,7284.000,128.300,128.360,128.454,128.498,128.330
623,50640.000,128.620,128.630,128.558,128.591,128.620
624,37103.000,128.930,129.100,128.594,128.857,129.220
625,1555.000,128.060,128.330,128.378,128.658,128.290
626,762.000,128.480,128.680,128.394,128.598,128.680
627,2443.000,128.530,128.680,128.432,128.582,128.590
628,1830.000,128.650,128.760,128.611,128.731,128.680
629,714.000,128.770,128.920,128.825,128.934,128.860
630,1921.000,128.830,128.900,128.982,129.086,128.880
631,1933.000,128.590,128.650,128.667,128.780,128.650
632,1761.000,128.540,128.600,128.485,128.575,128.570
633,800.000,128.440,128.510,128.514,128.609,128.470
634,714.000,128.640,128.720,128.591,128.681,128.610
635,2255.000,128.710,128.790,128.641,128.720,128.800
636,4777.000,128.570,128.640,128.749,128.837,128.570
637,1407.000,128.770,128.860,128.708,128.793,128.840
638,1744.000,129.060,129.160,128.925,129.001,129.140
639,1659.000,129.200,129.240,129.169,129.245,129.220
640,2996.000,129.290,129.340,129.207,129.269,129.290
641,2442.000,129.380,129.470,129.295,129.362,129.450
642,1640.000,129.540,129.600,129.443,129.514,129.560
643,1538.000,129.250,129.290,129.321,129.387,129.260
644,1243.000,129.200,129.260,129.202,129.269,129.240
645,1465.000,128.820,128.870,129.077,129.150,128.950
646,1602.000,128.680,128.740,128.794,128.856,128.770
647,2390.000,128.460,128.530,128.296,128.365,128.310
648,1667.000,128.410,128.440,128.523,128.593,128.450
649,2008.000,128.430,128.510,128.360,128.435,128.500
650,715.000,128.390,128.440,128.505,128.579,128.610
651,2339.000,128.180,128.250,128.329,128.400,128.200
652,1819.000,128.460,128.530,128.286,128.353,128.500
653,2200.000,128.680,128.780,128.481,128.561,128.720
654,3973.000,128.500,128.550,128.639,128.701,128.510
655,3510.000,128.730,128.780,128.616,128.670,128.690
656,2566.000,128.980,129.020,128.926,128.980,128.990
657,1414.000,129.090,129.160,129.066,129.126,129.130
658,2303.000,129.170,129.200,129.205,129.264,129.350
659,2251.000,128.920,128.950,128.993,129.042,129.000
660,4389.000,129.130,129.190,129.171,129.217,129.160
661,6796.000,129.510,129.580,129.263,129.297,129.490
662,41285.000,129.530,129.540,129.546,129.578,129.530
663,48905.000,128.240,128.400,127.792,128.105,128.270
664,5317.000,128.540,128.730,128.679,128.887,128.580
665,3350.000,127.890,128.180,128.467,128.667,128.110
666,4961.000,128.380,128.680,128.655,128.829,128.590
667,3453.000,127.490,127.630,128.041,128.192,127.730
668,4290.000,127.080,127.240,127.033,127.184,127.070
669,3243.000,127.070,127.150,127.166,127.298,127.120
670,3184.000,127.200,127.280,127.143,127.251,127.130
671,3132.000,127.610,127.680,127.356,127.448,127.620
672,2370.000,127.060,127.190,127.445,127.557,127.410
673,1530.000,126.390,126.550,126.611,126.768,126.480
674,2682.000,125.680,125.820,125.976,126.123,125.820
675,2361.000,125.080,125.150,125.355,125.476,125.170
676,2030.000,124.910,124.980,124.828,124.923,124.940
677,3962.000,125.180,125.270,125.025,125.112,125.230
678,2668.000,125.470,125.550,125.539,125.637,125.480
679,1816.000,125.470,125.550,125.499,125.601,125.650
680,1045.000,125.560,125.620,125.518,125.624,125.510
681,3376.000,125.640,125.770,125.579,125.689,125.700
682,2477.000,124.840,124.980,125.053,125.166,124.940
683,2530.000,125.110,125.190,124.979,125.082,125.140
684,2267.000,125.240,125.340,125.221,125.344,125.350
685,2079.000,124.820,124.930,124.990,125.079,124.950
686,2557.000,124.510,124.610,124.686,124.781,124.600
687,2210.000,124.190,124.290,124.344,124.442,124.240
688,1559.000,124.270,124.360,124.249,124.357,124.290
689,841.000,124.160,124.330,124.163,124.278,124.240
690,2490.000,123.400,123.510,123.757,123.867,123.460
691,2715.000,123.610,123.740,123.353,123.469,123.550
692,2215.000,123.360,123.430,123.485,123.589,123.430
693,2681.000,122.900,122.990,123.148,123.254,122.980
694,5728.000,123.830,123.930,123.437,123.543,123.920
695,2930.000,123.570,123.660,123.690,123.782,123.640
696,3715.000,123.670,123.760,123.579,123.666,123.670
697,2134.000,124.160,124.240,124.023,124.122,124.220
698,4441.000,124.000,124.100,123.805,123.904,123.950
699,7944.000,124.160,124.280,124.221,124.313,124.270
700,4741.000,124.580,124.650,124.382,124.469,124.510
701,42673.000,124.440,124.450,124.503,124.574,124.440
702,68192.000,122.970,123.140,122.380,122.658,122.830
703,8155.000,122.580,122.780,122.853,123.063,122.450
704,4919.000,123.610,124.070,122.736,122.914,123.210
705,4691.000,123.090,123.330,123.889,124.164,123.070
706,3496.000,123.140,123.280,122.950,123.116,123.160
707,5043.000,124.010,124.120,123.632,123.764,123.910
708,1639.000,123.910,124.030,124.048,124.184,123.990
709,2616.000,124.430,124.540,124.260,124.379,124.530
710,2909.000,124.230,124.300,124.268,124.372,124.280
711,2153.000,124.720,124.840,124.315,124.424,124.730
712,3317.000,124.800,124.920,125.057,125.173,124.890
713,2319.000,124.890,124.970,124.757,124.859,124.940
714,2271.000,124.900,125.000,125.002,125.093,124.970
715,1325.000,125.020,125.090,124.890,124.969,125.080
716,4231.000,125.170,125.220,125.085,125.160,125.200
717,3027.000,125.000,125.060,125.252,125.332,125.360
718,1430.000,125.040,125.110,125.074,125.158,125.080
719,3698.000,124.950,125.070,125.068,125.147,125.010
720,1367.000,125.030,125.100,125.104,125.189,125.070
721,2075.000,125.400,125.460,125.227,125.303,125.440
722,2931.000,125.240,125.310,125.292,125.371,125.380
723,3256.000,125.100,125.200,125.297,125.383,125.270
724,800.000,125.020,125.110,124.925,125.008,125.060
725,1849.000,124.970,125.060,125.055,125.139,125.120
726,508.000,124.890,125.010,124.978,125.058,124.970
727,2476.000,124.970,125.030,124.825,124.896,124.800
728,3806.000,124.760,124.910,124.915,124.990,124.880
729,4490.000,124.800,124.810,124.880,125.030,124.810
730,4337.000,124.900,124.980,124.775,124.868,124.970
731,7947.000,123.630,123.680,124.190,124.283,123.560
732,5484.000,123.700,123.780,123.656,123.742,123.760
733,4288.000,123.570,123.660,123.731,123.810,123.670
734,3690.000,124.060,124.120,123.720,123.800,124.090
735,2258.000,124.050,124.110,124.110,124.181,124.070
736,4825.000,124.580,124.650,124.380,124.449,124.610
737,3418.000,124.450,124.520,124.393,124.464,124.460
738,6635.000,123.960,124.010,124.052,124.125,124.010
739,8944.000,124.300,124.330,123.949,124.010,124.310
740,112390.000,124.240,124.250,124.376,124.420,124.250
741,34665.000,124.660,124.870,124.757,125.054,124.780
742,8076.000,124.660,124.800,124.623,124.865,124.750
743,3583.000,125.480,125.620,125.178,125.381,125.440
744,16728.000,124.790,125.020,124.971,125.145,125.180
745,10734.000,125.130,125.230,125.186,125.369,124.960
746,2718.000,124.730,124.860,124.883,125.023,124.800
747,4103.000,124.850,124.930,124.701,124.817,124.840
748,6605.000,124.690,124.790,124.716,124.811,124.760
749,3437.000,124.240,124.520,124.451,124.578,124.310
750,5707.000,124.940,125.090,124.715,124.846,124.900
751,7940.000,124.710,124.800,125.064,125.159,124.780
752,3456.000,124.660,124.770,124.678,124.774,124.570
753,2554.000,124.790,124.850,124.788,124.871,124.720
754,1682.000,124.930,125.050,124.770,124.849,125.000
755,1175.000,124.650,124.700,124.751,124.821,124.760
756,1474.000,124.870,124.940,124.825,124.899,124.940
757,3049.000,124.440,124.520,124.636,124.708,124.490
758,10095.000,124.620,124.670,124.556,124.622,124.620
759,1893.000,124.520,124.610,124.625,124.694,124.620
760,3616.000,124.730,124.800,124.588,124.655,124.740
761,3482.000,124.450,124.500,124.584,124.655,124.490
762,4504.000,124.630,124.680,124.548,124.608,124.680
763,2790.000,124.540,124.620,124.386,124.453,124.540
764,2647.000,125.390,125.460,125.020,125.111,125.430
765,8927.000,125.050,125.080,125.224,125.288,125.120
766,4580.000,125.100,125.190,125.049,125.111,125.220
767,4366.000,125.030,125.080,125.113,125.170,125.060
768,5054.000,125.250,125.310,125.182,125.245,125.320
769,3110.000,125.030,125.110,125.085,125.154,125.150
770,1670.000,124.730,124.800,124.964,125.035,124.850
771,2801.000,124.830,124.900,124.841,124.912,124.960
772,2310.000,124.750,124.830,124.826,124.894,124.830
773,1222.000,124.710,124.770,124.791,124.851,124.760
774,2997.000,124.560,124.620,124.594,124.654,124.560
775,4382.000,124.440,124.500,124.375,124.433,124.460
776,5864.000,124.120,124.160,124.308,124.360,124.130
777,7168.000,124.280,124.320,124.131,124.181,124.310
778,9163.000,124.220,124.240,124.172,124.214,124.210
779,64669.000,124.300,124.340,124.249,124.283,124.360
780,43337.000,126.310,126.430,126.197,126.432,126.410
781,5551.000,126.050,126.200,126.424,126.604,126.060
782,4346.000,126.480,126.770,126.337,126.498,126.520
783,6032.000,127.810,127.970,127.197,127.371,127.930
784,4284.000,127.870,127.960,127.797,127.932,127.920
785,3308.000,128.440,128.540,128.059,128.173,128.480
786,7583.000,128.950,129.020,128.750,128.843,128.980
787,2563.000,129.010,129.070,128.789,128.870,128.950
788,2878.000,128.760,128.800,128.839,128.924,128.820
789,2376.000,128.290,128.390,128.559,128.650,128.500
790,3055.000,128.080,128.170,128.233,128.334,128.200
791,3219.000,128.050,128.150,128.074,128.165,128.110
792,1170.000,128.020,128.100,127.993,128.084,128.200
793,2057.000,128.210,128.250,128.146,128.220,128.260
794,1784.000,128.280,128.320,128.304,128.379,128.310
795,1750.000,128.240,128.300,128.229,128.298,128.160
796,4614.000,127.650,127.730,127.813,127.883,127.700
797,2328.000,127.210,127.270,127.342,127.412,127.330
798,4220.000,127.370,127.440,127.299,127.378,127.480
799,2113.000,127.320,127.440,127.204,127.282,127.450
800,1410.000,127.300,127.370,127.395,127.469,127.320
801,1344.000,127.060,127.100,127.162,127.233,127.050
802,4145.000,127.110,127.140,127.117,127.186,127.180
803,4917.000,126.900,126.950,126.892,126.951,126.960
804,6884.000,126.840,126.880,126.812,126.879,126.860
805,3037.000,126.420,126.480,126.847,126.927,126.520
806,4317.000,126.560,126.630,126.410,126.483,126.630
807,2476.000,126.380,126.440,126.549,126.623,126.440
808,2785.000,126.710,126.780,126.631,126.701,126.740
809,2053.000,126.860,126.960,126.860,126.938,126.900
810,3145.000,127.340,127.410,127.116,127.193,127.380
811,3975.000,127.230,127.280,127.311,127.381,127.290
812,3365.000,127.300,127.360,127.323,127.393,127.360
813,3550.000,127.480,127.530,127.490,127.550,127.500
814,3488.000,127.640,127.680,127.540,127.596,127.640
815,2721.000,127.600,127.630,127.533,127.587,127.640
816,6755.000,127.590,127.640,127.551,127.589,127.590
817,11754.000,127.680,127.730,127.758,127.787,127.740
818,47560.000,127.450,127.470,127.495,127.521,127.450
819,53737.000,128.560,128.760,128.947,129.195,128.650
820,10898.000,128.740,128.880,128.872,129.064,128.960
821,7063.000,129.360,129.480,129.026,129.155,129.450
822,5020.000,129.270,129.410,129.501,129.620,129.310
823,3878.000,128.370,128.480,128.729,128.855,128.470
824,7344.000,127.820,128.120,128.078,128.217,128.030
825,6024.000,127.940,128.090,128.144,128.287,128.080
826,4127.000,128.570,128.640,127.949,128.076,128.630
827,6217.000,128.480,128.530,128.569,128.646,128.480
828,5954.000,127.920,128.020,128.203,128.325,127.910
829,4185.000,127.970,128.090,127.883,128.003,128.010
830,6265.000,128.420,128.620,128.136,128.256,128.490
831,6047.000,127.800,127.950,128.002,128.152,127.790
832,3303.000,128.040,128.200,127.996,128.124,128.030
833,2505.000,127.670,127.860,128.003,128.122,127.680
834,4246.000,127.850,128.020,127.684,127.821,127.940
835,1860.000,127.620,127.730,127.695,127.827,127.720
836,2803.000,127.680,127.820,127.509,127.643,127.630
837,1696.000,127.880,127.940,127.790,127.916,127.910
838,2318.000,128.120,128.270,127.993,128.116,128.250
839,4067.000,128.110,128.190,128.239,128.342,128.180
840,2538.000,127.250,127.400,127.593,127.727,127.310
841,3446.000,127.530,127.630,127.438,127.559,127.570
842,1740.000,127.820,127.900,127.743,127.858,127.790
843,2547.000,127.830,127.900,127.755,127.865,127.810
844,3066.000,128.080,128.180,127.846,127.963,128.040
845,2854.000,128.090,128.160,128.060,128.175,128.140
846,2691.000,128.350,128.420,128.254,128.357,128.360
847,3064.000,127.920,128.080,128.105,128.209,128.020
848,1530.000,127.680,127.810,127.635,127.750,127.770
849,3007.000,127.740,127.830,127.733,127.830,127.830
850,3636.000,128.040,128.120,127.904,128.005,128.060
851,3226.000,128.270,128.350,128.117,128.215,128.290
852,3897.000,127.810,127.860,128.001,128.084,127.830
853,4978.000,127.760,127.840,127.822,127.900,127.860
854,4891.000,127.260,127.330,127.606,127.691,127.310
855,8265.000,127.290,127.330,127.259,127.326,127.360
856,11733.000,127.690,127.760,127.458,127.505,127.700
857,61319.000,127.750,127.770,127.918,127.946,127.750
858,33823.000,127.530,127.700,127.811,128.096,127.540
859,9082.000,126.730,126.850,127.297,127.476,126.790
860,9695.000,126.500,126.630,126.895,127.051,126.600
861,5901.000,126.950,127.110,126.669,126.795,126.980
862,6557.000,127.260,127.400,127.229,127.358,127.390
863,11920.000,127.050,127.200,127.048,127.166,127.060
864,2683.000,126.720,126.820,126.732,126.858,126.720
865,3478.000,126.380,126.500,126.518,126.617,126.500
866,2441.000,126.380,126.450,126.449,126.550,126.410
867,4376.000,126.960,127.080,126.733,126.835,126.990
868,3935.000,126.720,126.750,126.766,126.858,126.740
869,2454.000,126.320,126.410,126.501,126.587,126.400
870,3385.000,126.240,126.310,126.398,126.474,126.290
871,1907.000,126.200,126.270,126.176,126.238,126.190
872,1381.000,126.560,126.610,126.400,126.468,126.560
873,3093.000,126.620,126.690,126.527,126.598,126.660
874,4648.000,126.740,126.790,126.789,126.865,126.800
875,3866.000,126.920,126.950,126.782,126.856,126.860
876,6399.000,127.580,127.650,127.230,127.309,127.600
877,3387.000,127.130,127.210,127.345,127.426,127.150
878,1302.000,127.200,127.280,127.164,127.235,127.160
879,6220.000,127.210,127.280,127.021,127.097,127.290
880,2434.000,127.280,127.390,127.248,127.334,127.310
881,1544.000,127.600,127.690,127.492,127.570,127.690
882,1504.000,127.860,127.940,127.746,127.808,127.950
883,3165.000,127.680,127.760,127.741,127.810,127.750
884,1753.000,127.990,128.020,127.711,127.780,127.810
885,1757.000,127.980,128.080,128.069,128.147,128.080
886,2396.000,128.080,128.130,128.074,128.138,128.100
887,3417.000,127.630,127.700,127.845,127.906,127.680
888,5417.000,127.280,127.330,127.499,127.554,127.390
889,3296.000,127.460,127.530,127.344,127.397,127.460
890,3137.000,127.440,127.500,127.438,127.484,127.460
891,2171.000,127.390,127.450,127.459,127.511,127.450
892,3845.000,127.430,127.480,127.443,127.490,127.470
893,2874.000,127.290,127.350,127.480,127.528,127.320
894,4000.000,127.520,127.570,127.324,127.363,127.480
895,5205.000,127.650,127.680,127.573,127.605,127.670
896,62729.000,127.630,127.640,127.797,127.825,127.620
897,41544.000,128.900,129.030,129.028,129.302,129.190
898,2156.000,128.260,128.420,128.553,128.737,128.310
899,5173.000,127.590,127.770,127.936,128.082,127.740
900,3614.000,127.270,127.430,127.382,127.544,127.460
901,2677.000,126.720,126.890,126.756,126.883,126.640
902,2707.000,126.810,127.080,126.845,126.999,127.000
903,3825.000,126.850,126.950,126.835,127.016,126.910
904,7511.000,125.820,125.940,126.316,126.412,125.850
905,3869.000,125.790,125.870,125.832,125.925,125.800
906,3341.000,126.770,126.840,126.385,126.476,126.670
907,1959.000,127.170,127.270,126.920,127.005,127.190
908,3386.000,127.020,127.100,126.862,126.946,127.070
909,2872.000,127.590,127.660,127.415,127.507,127.660
910,14623.000,127.340,127.490,127.508,127.607,127.540
911,9572.000,127.280,127.330,127.339,127.447,127.250
912,9981.000,127.450,127.540,127.494,127.588,127.460
913,3434.000,127.460,127.540,127.528,127.625,127.510
914,2471.000,127.290,127.390,127.371,127.457,127.320
915,4375.000,127.070,127.140,127.226,127.292,127.090
916,1283.000,127.200,127.260,127.133,127.215,127.210
917,3637.000,127.210,127.280,127.286,127.356,127.240
918,2220.000,127.190,127.280,127.255,127.327,127.220
919,6775.000,126.680,126.790,127.021,127.104,126.860
920,2418.000,126.990,127.040,126.900,126.975,127.030
921,2730.000,127.080,127.160,127.051,127.120,127.220
922,2628.000,127.110,127.200,127.146,127.215,127.190
923,3119.000,127.080,127.120,127.092,127.161,127.100
924,2463.000,126.950,127.010,126.996,127.065,126.950
925,1385.000,127.090,127.150,126.907,126.975,127.110
926,1827.000,127.490,127.560,127.271,127.332,127.570
927,7327.000,127.260,127.300,127.368,127.433,127.280
928,2831.000,127.050,127.080,127.218,127.260,127.100
929,3846.000,127.210,127.250,127.146,127.191,127.230
930,5506.000,127.090,127.120,127.109,127.151,127.090
931,2366.000,127.360,127.400,127.261,127.305,127.280
932,5161.000,127.340,127.380,127.324,127.365,127.320
933,9537.000,127.030,127.060,127.084,127.119,127.060
934,7642.000,127.170,127.210,126.992,127.022,127.180
935,82891.000,126.820,126.830,126.951,126.978,126.820
936,75510.000,128.150,128.350,128.225,128.454,128.160
937,6692.000,129.260,129.420,128.633,128.803,129.360
938,3649.000,129.060,129.170,129.100,129.270,129.130
939,7518.000,129.910,130.040,129.510,129.639,129.930
940,20500.000,130.040,130.190,130.110,130.228,130.120
941,2692.000,130.220,130.280,130.060,130.177,130.080
942,15171.000,130.440,130.520,130.330,130.431,130.370
943,5797.000,130.650,130.740,130.342,130.435,130.670
944,6314.000,130.770,130.840,130.671,130.760,130.830
945,5230.000,130.820,130.910,130.554,130.652,130.840
946,5413.000,130.810,130.920,130.829,130.920,130.860
947,4710.000,130.800,130.910,130.926,131.005,130.980
948,3591.000,130.620,130.740,130.634,130.709,130.690
949,9276.000,130.670,130.740,130.826,130.894,130.690
950,4335.000,130.500,130.580,130.579,130.651,130.700
951,6494.000,130.730,130.780,130.763,130.825,130.760
952,3539.000,130.750,130.870,130.814,130.884,130.760
953,4593.000,130.810,130.890,130.707,130.779,130.850
954,1500.000,130.920,130.980,130.989,131.058,131.020
955,4329.000,130.930,131.020,130.960,131.031,131.070
956,7029.000,131.540,131.600,131.251,131.316,131.510
957,2633.000,131.670,131.780,131.696,131.773,131.680
958,4890.000,131.760,131.800,131.854,131.934,131.790
959,4493.000,130.910,130.980,131.409,131.485,131.010
960,1317.000,131.490,131.590,131.211,131.301,131.480
961,8275.000,131.060,131.180,131.420,131.506,131.190
962,3079.000,131.260,131.320,131.290,131.376,131.400
963,15324.000,130.440,130.540,130.787,130.883,130.550
964,5661.000,130.840,130.940,130.648,130.735,130.890
965,2001.000,130.710,130.760,130.740,130.816,130.740
966,9259.000,130.720,130.810,130.665,130.730,130.740
967,6295.000,131.200,131.270,131.119,131.195,131.290
968,15139.000,131.010,131.080,130.818,130.907,131.030
969,5118.000,130.890,130.950,130.932,131.005,130.950
970,4628.000,130.860,130.900,130.848,130.912,130.850
971,12847.000,130.730,130.800,131.083,131.145,130.750
972,13864.000,130.670,130.730,130.716,130.783,130.680
973,11151.000,130.460,130.490,130.569,130.617,130.480
974,58057.000,130.450,130.460,130.464,130.497,130.450
975,33471.000,128.660,128.940,129.205,129.555,129.080
976,4211.000,128.210,128.540,128.564,128.812,128.350
977,1433.000,128.010,128.270,128.127,128.378,128.210
978,5022.000,128.080,128.250,128.254,128.472,128.300
979,2116.000,128.360,128.560,128.247,128.396,128.500
980,3427.000,128.670,128.780,128.519,128.689,128.720
981,3792.000,128.800,128.940,128.958,129.095,128.930
982,1879.000,128.950,129.080,128.721,128.849,129.070
983,1449.000,128.720,128.850,128.712,128.839,128.780
984,2716.000,128.670,128.750,128.619,128.714,128.720
985,3794.000,128.770,128.850,128.780,128.866,128.880
986,2579.000,128.890,128.980,128.985,129.067,129.000
987,1733.000,128.620,128.710,128.744,128.835,128.720
988,2449.000,128.750,128.850,128.727,128.816,128.710
989,1055.000,128.890,128.980,128.787,128.885,128.940
990,1726.000,128.580,128.710,128.758,128.848,128.670
991,1318.000,128.540,128.620,128.722,128.816,128.600
992,694.000,128.400,128.470,128.476,128.568,128.470
993,2828.000,128.100,128.150,128.243,128.328,128.180
994,1925.000,128.220,128.310,128.181,128.259,128.290
995,1453.000,128.250,128.330,128.267,128.333,128.300
996,1530.000,128.540,128.590,128.475,128.543,128.570
997,1905.000,128.690,128.700,128.689,128.758,128.710
998,1599.000,128.530,128.610,128.605,128.676,128.540
999,2080.000,128.790,128.860,128.675,128.745,128.730
1000,1475.000,129.280,129.340,129.026,129.096,129.330
1001,1965.000,129.410,129.490,129.304,129.377,129.460
1002,4304.000,129.150,129.230,129.308,129.379,129.290
1003,1900.000,129.370,129.430,129.253,129.327,129.370
1004,1636.000,129.260,129.340,129.268,129.348,129.300
1005,2522.000,129.360,129.420,129.259,129.338,129.410
1006,999.000,129.280,129.340,129.312,129.383,129.320
1007,1321.000,129.280,129.330,129.201,129.264,129.310
1008,5014.000,129.640,129.670,129.564,129.623,129.610
1009,2687.000,129.480,129.540,129.513,129.567,129.520
1010,3185.000,129.640,129.660,129.525,129.583,129.650
1011,4580.000,129.950,129.970,129.787,129.819,129.960
1012,27474.000,130.020,130.050,129.959,129.986,130.040
1013,55380.000,129.460,129.480,129.630,129.661,129.460
1014,47901.000,129.910,130.120,129.939,130.224,130.070
1015,7863.000,130.730,130.880,130.418,130.618,130.850
1016,2859.000,130.000,130.320,130.363,130.562,130.330
1017,2101.000,129.650,129.880,129.944,130.134,129.800
1018,1856.000,129.590,129.760,129.707,129.858,129.790
1019,1717.000,130.190,130.300,129.886,130.017,130.020
1020,1480.000,130.110,130.200,130.267,130.377,130.350
1021,1743.000,129.830,129.920,129.810,129.916,129.790
1022,1847.000,129.560,129.650,129.505,129.594,129.510
1023,1758.000,129.440,129.550,129.563,129.651,129.570
1024,3280.000,128.970,129.060,129.260,129.352,129.040
1025,4126.000,129.170,129.270,129.088,129.187,129.310
1026,4594.000,129.060,129.130,129.033,129.114,129.140
1027,892.000,128.800,128.870,128.796,128.882,128.820
1028,584.000,128.770,128.830,128.715,128.799,128.840
1029,2327.000,129.190,129.290,129.061,129.136,129.240
1030,3247.000,129.380,129.450,129.361,129.442,129.380
1031,1591.000,129.060,129.170,129.215,129.306,129.090
1032,1427.000,128.990,129.050,129.110,129.198,129.090
1033,6753.000,128.920,129.020,129.091,129.179,128.980
1034,2250.000,128.920,129.020,128.919,128.996,128.990
1035,2008.000,129.150,129.220,129.123,129.191,129.170
1036,1365.000,129.230,129.280,129.205,129.272,129.310
1037,1623.000,129.200,129.290,129.220,129.292,129.250
1038,1150.000,129.270,129.340,129.175,129.251,129.250
1039,2076.000,129.270,129.360,129.291,129.354,129.280
1040,2225.000,129.470,129.580,129.330,129.388,129.490
1041,1128.000,129.540,129.600,129.505,129.562,129.560
1042,2867.000,129.530,129.580,129.521,129.584,129.450
1043,3826.000,129.450,129.490,129.428,129.483,129.510
1044,3798.000,129.870,129.920,129.736,129.781,129.890
1045,2071.000,129.810,129.860,129.795,129.855,129.830
1046,2109.000,129.380,129.430,129.650,129.703,129.430
1047,4609.000,129.460,129.530,129.581,129.634,129.500
1048,3589.000,129.530,129.550,129.594,129.646,129.560
1049,3924.000,129.370,129.410,129.516,129.566,129.430
1050,7011.000,129.730,129.750,129.518,129.552,129.740
1051,8975.000,129.840,129.880,129.749,129.781,129.840
1052,62287.000,130.010,130.050,129.674,129.702,130.040
1053,46758.000,131.650,131.920,131.474,131.721,131.630
1054,10515.000,132.510,132.650,131.994,132.183,132.580
1055,8573.000,133.030,133.160,132.718,132.850,133.100
1056,12204.000,132.430,132.530,132.673,132.774,132.430
1057,15014.000,133.300,133.390,132.826,132.925,133.320
1058,7580.000,133.460,133.580,133.541,133.636,133.560
1059,11803.000,132.770,132.860,133.256,133.340,132.810
1060,10454.000,133.210,133.300,132.990,133.072,133.210
1061,11071.000,133.120,133.220,133.129,133.206,133.170
1062,10628.000,132.980,133.010,132.985,133.075,132.990
1063,9735.000,132.410,132.450,132.729,132.821,132.450
1064,11026.000,131.990,132.050,132.193,132.262,132.040
1065,7584.000,131.820,131.870,131.886,131.968,131.840
1066,10824.000,131.510,131.570,131.408,131.504,131.580
1067,5374.000,131.380,131.450,131.295,131.394,131.450
1068,6432.000,131.390,131.530,131.409,131.508,131.400
1069,5816.000,131.060,131.140,131.119,131.218,131.120
1070,3743.000,130.060,130.130,130.395,130.484,130.150
1071,11803.000,129.880,129.980,130.011,130.091,130.020
1072,8898.000,129.800,129.900,129.730,129.840,129.890
1073,7422.000,129.720,129.780,129.658,129.757,129.720
1074,3244.000,129.480,129.570,129.614,129.721,129.590
1075,3415.000,129.300,129.390,129.430,129.518,129.290
1076,14727.000,129.880,129.930,129.466,129.539,129.890
1077,3680.000,129.980,130.030,130.022,130.100,129.980
1078,4411.000,130.050,130.110,130.154,130.219,130.050
1079,6130.000,130.000,130.050,130.042,130.102,130.090
1080,5382.000,130.020,130.070,130.048,130.122,130.040
1081,4606.000,129.730,129.840,129.947,130.015,129.800
1082,2299.000,130.220,130.300,129.988,130.068,130.140
1083,3219.000,129.720,129.770,129.900,129.962,129.750
1084,5598.000,129.950,130.050,129.803,129.869,129.940
1085,5475.000,129.230,129.280,129.523,129.595,129.260
1086,6022.000,129.130,129.180,128.921,128.985,129.130
1087,5938.000,129.130,129.200,129.068,129.136,129.140
1088,21507.000,128.970,129.050,129.033,129.087,129.050
1089,27413.000,128.540,128.560,128.737,128.779,128.510
1090,33629.000,128.640,128.680,128.462,128.491,128.680
1091,149646.000,128.830,128.840,128.667,128.691,128.840
1092,65912.000,129.350,129.630,129.423,129.769,129.320
1093,9782.000,128.900,129.120,129.001,129.244,128.980
1094,8868.000,128.550,128.820,128.794,128.965,128.690
1095,7918.000,128.840,128.920,128.718,128.891,128.920
1096,9067.000,128.900,129.200,128.840,129.009,128.970
1097,6285.000,128.580,128.700,128.856,129.030,128.630
1098,6526.000,128.800,128.880,128.595,128.707,128.800
1099,4001.000,129.170,129.300,129.114,129.216,129.260
1100,2826.000,128.370,128.520,128.624,128.747,128.430
1101,3514.000,128.690,128.820,128.591,128.755,128.810
1102,4911.000,128.310,128.370,128.427,128.557,128.420
1103,3322.000,127.840,127.970,127.828,127.955,127.910
1104,6740.000,128.240,128.350,128.107,128.196,128.310
1105,1758.000,127.750,127.860,127.812,127.907,127.780
1106,1339.000,128.070,128.160,128.011,128.097,128.120
1107,3150.000,128.900,129.010,128.651,128.738,128.920
1108,3210.000,129.930,130.000,129.441,129.529,129.890
1109,3795.000,130.030,130.160,129.920,130.003,130.080
1110,4749.000,129.860,129.930,129.929,130.001,129.900
1111,2614.000,129.730,129.800,129.877,129.955,129.720
1112,810.000,129.790,129.850,129.720,129.797,129.800
1113,4165.000,130.040,130.110,129.884,129.968,130.070
1114,4123.000,130.310,130.400,130.112,130.190,130.320
1115,1552.000,129.990,130.030,130.103,130.187,130.000
1116,3434.000,130.740,130.800,130.351,130.417,130.770
1117,2185.000,130.460,130.520,130.546,130.623,130.470
1118,6782.000,131.070,131.160,130.752,130.808,131.200
1119,2912.000,131.110,131.200,131.103,131.174,131.130
1120,3752.000,131.560,131.620,131.194,131.264,131.580
1121,2482.000,131.430,131.500,131.531,131.605,131.480
1122,3538.000,131.710,131.750,131.493,131.546,131.750
1123,4229.000,131.680,131.760,131.674,131.733,131.670
1124,3666.000,131.570,131.640,131.693,131.759,131.620
1125,4285.000,131.680,131.750,131.630,131.692,131.750
1126,6728.000,131.330,131.390,131.374,131.435,131.360
1127,2335.000,131.700,131.790,131.666,131.738,131.770
1128,3442.000,131.760,131.800,131.553,131.615,131.800
1129,11583.000,131.210,131.440,131.652,131.694,131.530
1130,68261.000,131.280,131.290,131.292,131.319,131.310
1131,200337.000,131.110,131.230,130.822,131.143,130.970
1132,2392.000,131.160,131.400,131.156,131.365,131.510
1133,3034.000,131.610,131.760,131.495,131.673,131.760
1134,11747.000,132.070,132.190,131.816,131.955,131.870
1135,7315.000,131.570,131.750,131.744,131.859,131.660
1136,1711.000,131.580,131.700,131.610,131.758,131.690
1137,1178.000,131.270,131.350,131.500,131.609,131.490
1138,2461.000,130.900,131.000,131.105,131.199,130.900
1139,2800.000,131.240,131.350,131.029,131.127,131.150
1140,3797.000,131.940,132.010,131.625,131.721,131.900
1141,4689.000,132.270,132.370,132.162,132.246,132.310
1142,6546.000,133.000,133.070,132.720,132.800,132.960
1143,6182.000,132.940,132.980,132.740,132.830,132.970
1144,4690.000,133.200,133.240,133.075,133.147,133.250
1145,4874.000,132.860,132.950,133.044,133.117,132.920
1146,3704.000,133.070,133.160,133.031,133.103,133.090
1147,3413.000,133.200,133.290,133.195,133.279,133.210
1148,1722.000,132.880,132.940,133.048,133.134,132.940
1149,4124.000,132.600,132.670,132.648,132.734,132.540
1150,2064.000,132.430,132.530,132.547,132.637,132.440
1151,4619.000,132.510,132.600,132.483,132.573,132.450
1152,6667.000,132.000,132.080,132.402,132.485,132.050
1153,1300.000,131.760,131.840,131.936,132.026,132.050
1154,1603.000,131.580,131.670,131.703,131.789,131.680
1155,2230.000,131.940,132.020,131.798,131.882,132.010
1156,3035.000,132.430,132.490,132.069,132.143,132.350
1157,2205.000,132.420,132.530,132.397,132.480,132.480
1158,8564.000,132.210,132.350,132.385,132.476,132.450
1159,1450.000,132.180,132.250,132.308,132.407,132.220
1160,1017.000,132.090,132.180,132.052,132.131,132.170
1161,2279.000,132.380,132.450,132.174,132.255,132.360
1162,2013.000,132.080,132.170,132.283,132.357,132.130
1163,1344.000,132.190,132.250,132.107,132.178,132.090
1164,2000.000,132.330,132.400,132.351,132.422,132.380
1165,3313.000,132.520,132.580,132.415,132.479,132.550
1166,2943.000,132.590,132.640,132.461,132.528,132.580
1167,13727.000,132.620,132.640,132.466,132.506,132.630
1168,10634.000,132.450,132.500,132.503,132.538,132.480
1169,53282.000,132.660,132.670,132.631,132.651,132.680
