,volume,bid,ask,avg_bid,avg_ask,last_trade,avg_volume,volume_trigger,spread,avg_spread,max_spread,delta_spread,min_tolerance_band,max_tolerance_band,spread_trigger,bid_ask_trigger,trigger_sum,order
0,55958.0,129.45,129.63,129.025,129.301,129.51,9198.638461538461,1,0.18000000000000682,0.08955555555555558,0.45999999999999375,0.18522222222221907,0.09566666666666349,0.2747777777777747,0,1,2,WAIT
1,7035.0,128.56,128.66,129.052,129.241,128.9,9198.638461538461,0,0.09999999999999432,0.08955555555555558,0.45999999999999375,0.18522222222221907,0.09566666666666349,0.2747777777777747,0,-1,-1,WAIT
2,9838.0,128.43,128.76,128.408,128.576,128.69,9198.638461538461,0,0.3299999999999841,0.08955555555555558,0.45999999999999375,0.18522222222221907,0.09566666666666349,0.2747777777777747,-1,1,0,WAIT
3,9377.0,128.21,128.35,128.592,128.733,128.22,9198.638461538461,0,0.13999999999998636,0.08955555555555558,0.45999999999999375,0.18522222222221907,0.09566666666666349,0.2747777777777747,0,-1,-1,WAIT
4,5278.0,128.37,128.52,128.207,128.38,128.48,9198.638461538461,0,0.15000000000000568,0.08955555555555558,0.45999999999999375,0.18522222222221907,0.09566666666666349,0.2747777777777747,0,1,1,WAIT
5,6898.0,128.94,129.2,128.428,128.579,128.88,9198.638461538461,0,0.2599999999999909,0.08955555555555558,0.45999999999999375,0.18522222222221907,0.09566666666666349,0.2747777777777747,0,1,1,WAIT
6,9272.0,128.11,128.19,128.488,128.67,128.16,9198.638461538461,0,0.07999999999998408,0.08955555555555558,0.45999999999999375,0.18522222222221907,0.09566666666666349,0.2747777777777747,1,-1,0,WAIT
7,5307.0,128.3,128.39,128.255,128.369,128.34,9198.638461538461,0,0.08999999999997499,0.08955555555555558,0.45999999999999375,0.18522222222221907,0.09566666666666349,0.2747777777777747,1,0,1,WAIT
8,12687.0,128.17,128.25,128.202,128.292,128.23,9198.638461538461,0,0.0800000000000125,0.08955555555555558,0.45999999999999375,0.18522222222221907,0.09566666666666349,0.2747777777777747,1,0,1,WAIT
9,8689.0,127.29,127.34,127.868,127.958,127.34,9198.638461538461,0,0.04999999999999716,0.08955555555555558,0.45999999999999375,0.18522222222221907,0.09566666666666349,0.2747777777777747,1,-1,0,WAIT
10,13475.0,127.44,127.55,127.055,127.163,127.38,9198.638461538461,0,0.10999999999999943,0.08955555555555558,0.45999999999999375,0.18522222222221907,0.09566666666666349,0.2747777777777747,0,1,1,WAIT
11,7361.0,127.37,127.48,127.23,127.349,127.44,9198.638461538461,0,0.10999999999999943,0.08955555555555558,0.45999999999999375,0.18522222222221907,0.09566666666666349,0.2747777777777747,0,1,1,WAIT
12,4614.0,127.16,127.2,127.411,127.503,127.16,9198.638461538461,0,0.04000000000000625,0.08955555555555558,0.45999999999999375,0.18522222222221907,0.09566666666666349,0.2747777777777747,1,-1,0,WAIT
13,6393.0,127.08,127.16,127.321,127.399,127.21,9198.638461538461,0,0.0799999999999983,0.08955555555555558,0.45999999999999375,0.18522222222221907,0.09566666666666349,0.2747777777777747,1,-1,0,WAIT
14,7100.0,127.03,127.1,126.938,127.015,127.05,9198.638461538461,0,0.06999999999999318,0.08955555555555558,0.45999999999999375,0.18522222222221907,0.09566666666666349,0.2747777777777747,1,1,2,WAIT
15,7942.0,127.4,127.49,127.188,127.261,127.33,9198.638461538461,0,0.0899999999999892,0.08955555555555558,0.45999999999999375,0.18522222222221907,0.09566666666666349,0.2747777777777747,1,1,2,WAIT
16,7028.0,127.16,127.27,127.287,127.351,127.19,9198.638461538461,0,0.10999999999999943,0.08955555555555558,0.45999999999999375,0.18522222222221907,0.09566666666666349,0.2747777777777747,0,-1,-1,WAIT
17,6352.0,127.28,127.42,127.217,127.277,127.3,9198.638461538461,0,0.14000000000000057,0.08955555555555558,0.45999999999999375,0.18522222222221907,0.09566666666666349,0.2747777777777747,0,1,1,WAIT
18,4195.0,127.46,127.51,127.537,127.618,127.41,9198.638461538461,-1,0.05000000000001137,0.08955555555555558,0.45999999999999375,0.18522222222221907,0.09566666666666349,0.2747777777777747,1,-1,-1,WAIT
19,4300.0,127.08,127.29,127.287,127.367,127.12,9198.638461538461,-1,0.21000000000000796,0.08955555555555558,0.45999999999999375,0.18522222222221907,0.09566666666666349,0.2747777777777747,0,-1,-2,WAIT
20,9136.0,126.64,126.87,126.811,126.907,126.83,9198.638461538461,0,0.23000000000000398,0.08955555555555558,0.45999999999999375,0.18522222222221907,0.09566666666666349,0.2747777777777747,0,0,0,WAIT
21,3834.0,126.82,127.05,126.712,126.846,126.91,9198.638461538461,-1,0.23000000000000398,0.08955555555555558,0.45999999999999375,0.18522222222221907,0.09566666666666349,0.2747777777777747,0,1,0,WAIT
22,6988.0,126.42,126.48,126.627,126.724,126.47,9198.638461538461,0,0.060000000000002274,0.08955555555555558,0.45999999999999375,0.18522222222221907,0.09566666666666349,0.2747777777777747,1,-1,0,WAIT
23,16684.0,126.49,126.67,126.558,126.652,126.44,9198.638461538461,1,0.18000000000000682,0.08955555555555558,0.45999999999999375,0.18522222222221907,0.09566666666666349,0.2747777777777747,0,-1,0,WAIT
24,10236.0,126.47,126.55,126.414,126.541,126.52,9198.638461538461,0,0.0799999999999983,0.08955555555555558,0.45999999999999375,0.18522222222221907,0.09566666666666349,0.2747777777777747,1,0,1,WAIT
25,9744.0,125.99,126.14,126.223,126.33,126.06,9198.638461538461,0,0.15000000000000568,0.08955555555555558,0.45999999999999375,0.18522222222221907,0.09566666666666349,0.2747777777777747,0,-1,-1,WAIT
26,9775.0,125.61,125.73,125.689,125.795,125.63,9198.638461538461,0,0.12000000000000455,0.08955555555555558,0.45999999999999375,0.18522222222221907,0.09566666666666349,0.2747777777777747,0,-1,-1,WAIT
27,10979.0,125.86,125.94,125.517,125.617,125.9,9198.638461538461,0,0.0799999999999983,0.08955555555555558,0.45999999999999375,0.18522222222221907,0.09566666666666349,0.2747777777777747,1,1,2,WAIT
28,5250.0,126.53,126.65,126.252,126.358,126.59,9198.638461538461,0,0.12000000000000455,0.08955555555555558,0.45999999999999375,0.18522222222221907,0.09566666666666349,0.2747777777777747,0,1,1,WAIT
29,4837.0,126.66,126.76,126.514,126.624,126.76,9198.638461538461,0,0.10000000000000853,0.08955555555555558,0.45999999999999375,0.18522222222221907,0.09566666666666349,0.2747777777777747,0,1,1,WAIT
30,6702.0,126.95,127.04,126.908,127.005,126.98,9198.638461538461,0,0.09000000000000341,0.08955555555555558,0.45999999999999375,0.18522222222221907,0.09566666666666349,0.2747777777777747,1,0,1,WAIT
31,6215.0,126.83,126.95,126.876,126.98,126.92,9198.638461538461,0,0.12000000000000455,0.08955555555555558,0.45999999999999375,0.18522222222221907,0.09566666666666349,0.2747777777777747,0,0,0,WAIT
32,9293.0,126.75,126.84,126.751,126.849,126.81,9198.638461538461,0,0.09000000000000341,0.08955555555555558,0.45999999999999375,0.18522222222221907,0.09566666666666349,0.2747777777777747,1,0,1,WAIT
33,13144.0,126.54,126.67,126.742,126.852,126.58,9198.638461538461,0,0.12999999999999545,0.08955555555555558,0.45999999999999375,0.18522222222221907,0.09566666666666349,0.2747777777777747,0,-1,-1,WAIT
34,12371.0,126.19,126.24,126.414,126.515,126.22,9198.638461538461,0,0.04999999999999716,0.08955555555555558,0.45999999999999375,0.18522222222221907,0.09566666666666349,0.2747777777777747,1,-1,0,WAIT
35,9131.0,126.37,126.44,126.172,126.284,126.3,9198.638461538461,0,0.06999999999999318,0.08955555555555558,0.45999999999999375,0.18522222222221907,0.09566666666666349,0.2747777777777747,1,1,2,WAIT
36,9254.0,126.13,126.21,126.225,126.308,126.18,9198.638461538461,0,0.0799999999999983,0.08955555555555558,0.45999999999999375,0.18522222222221907,0.09566666666666349,0.2747777777777747,1,-1,0,WAIT
37,10824.0,125.97,126.06,126.028,126.096,126.05,9198.638461538461,0,0.09000000000000341,0.08955555555555558,0.45999999999999375,0.18522222222221907,0.09566666666666349,0.2747777777777747,1,0,1,WAIT
38,127122.0,126.15,126.16,126.156,126.201,126.15,9198.638461538461,1,0.009999999999990905,0.08955555555555558,0.45999999999999375,0.18522222222221907,0.09566666666666349,0.2747777777777747,1,-1,1,WAIT
39,62724.0,127.9,128.14,128.433,128.764,128.28,9198.638461538461,1,0.23999999999998067,0.08955555555555558,0.45999999999999375,0.18522222222221907,0.09566666666666349,0.2747777777777747,0,-1,0,WAIT
40,12859.0,127.84,128.01,127.881,128.077,128.02,9198.638461538461,0,0.1699999999999875,0.08955555555555558,0.45999999999999375,0.18522222222221907,0.09566666666666349,0.2747777777777747,0,0,0,WAIT
41,30223.0,127.98,128.08,128.078,128.219,128.11,9198.638461538461,1,0.10000000000000853,0.08955555555555558,0.45999999999999375,0.18522222222221907,0.09566666666666349,0.2747777777777747,0,0,1,WAIT
42,16605.0,127.32,127.36,127.628,127.762,127.44,9198.638461538461,1,0.04000000000000625,0.08955555555555558,0.45999999999999375,0.18522222222221907,0.09566666666666349,0.2747777777777747,1,-1,1,WAIT
43,11135.0,126.26,126.49,126.756,126.886,126.37,9198.638461538461,0,0.22999999999998977,0.08955555555555558,0.45999999999999375,0.18522222222221907,0.09566666666666349,0.2747777777777747,0,-1,-1,WAIT
44,10267.0,126.2,126.26,126.393,126.542,126.29,9198.638461538461,0,0.060000000000002274,0.08955555555555558,0.45999999999999375,0.18522222222221907,0.09566666666666349,0.2747777777777747,1,-1,0,WAIT
45,22406.0,125.22,125.29,125.64,125.743,125.42,9198.638461538461,1,0.07000000000000739,0.08955555555555558,0.45999999999999375,0.18522222222221907,0.09566666666666349,0.2747777777777747,1,-1,1,WAIT
46,14574.0,125.15,125.21,124.984,125.094,125.03,9198.638461538461,1,0.05999999999998806,0.08955555555555558,0.45999999999999375,0.18522222222221907,0.09566666666666349,0.2747777777777747,1,0,2,WAIT
47,6372.0,124.48,124.67,124.818,124.915,124.68,9198.638461538461,0,0.18999999999999773,0.08955555555555558,0.45999999999999375,0.18522222222221907,0.09566666666666349,0.2747777777777747,0,-1,-1,WAIT
48,33802.0,123.86,123.95,124.337,124.435,123.92,9198.638461538461,1,0.09000000000000341,0.08955555555555558,0.45999999999999375,0.18522222222221907,0.09566666666666349,0.2747777777777747,1,-1,1,WAIT
49,8282.0,124.68,124.77,124.256,124.375,124.75,9198.638461538461,0,0.0899999999999892,0.08955555555555558,0.45999999999999375,0.18522222222221907,0.09566666666666349,0.2747777777777747,1,1,2,WAIT
50,8830.0,124.81,124.86,124.716,124.801,124.81,9198.638461538461,0,0.04999999999999716,0.08955555555555558,0.45999999999999375,0.18522222222221907,0.09566666666666349,0.2747777777777747,1,1,2,WAIT
51,14299.0,125.08,125.12,124.664,124.743,125.2,9198.638461538461,1,0.04000000000000625,0.08955555555555558,0.45999999999999375,0.18522222222221907,0.09566666666666349,0.2747777777777747,1,1,3,BUY
52,11109.0,125.9,125.98,125.618,125.705,125.98,9198.638461538461,0,0.0799999999999983,0.08955555555555558,0.45999999999999375,0.18522222222221907,0.09566666666666349,0.2747777777777747,1,1,2,WAIT
53,9461.0,125.5,125.6,125.586,125.661,125.55,9198.638461538461,0,0.09999999999999432,0.08955555555555558,0.45999999999999375,0.18522222222221907,0.09566666666666349,0.2747777777777747,0,-1,-1,WAIT
54,6399.0,125.71,125.8,125.492,125.569,125.61,9198.638461538461,0,0.09000000000000341,0.08955555555555558,0.45999999999999375,0.18522222222221907,0.09566666666666349,0.2747777777777747,1,1,2,WAIT
55,7236.0,125.37,125.44,125.533,125.612,125.48,9198.638461538461,0,0.06999999999999318,0.08955555555555558,0.45999999999999375,0.18522222222221907,0.09566666666666349,0.2747777777777747,1,-1,0,WAIT
56,8891.0,125.24,125.29,125.184,125.258,125.27,9198.638461538461,0,0.05000000000001137,0.08955555555555558,0.45999999999999375,0.18522222222221907,0.09566666666666349,0.2747777777777747,1,1,2,WAIT
57,11518.0,125.18,125.22,125.079,125.155,125.15,9198.638461538461,0,0.03999999999999204,0.08955555555555558,0.45999999999999375,0.18522222222221907,0.09566666666666349,0.2747777777777747,1,0,1,WAIT
58,8988.0,125.12,125.14,125.171,125.234,125.12,9198.638461538461,0,0.01999999999999602,0.08955555555555558,0.45999999999999375,0.18522222222221907,0.09566666666666349,0.2747777777777747,1,-1,0,WAIT
59,8542.0,125.13,125.18,125.039,125.106,125.16,9198.638461538461,0,0.05000000000001137,0.08955555555555558,0.45999999999999375,0.18522222222221907,0.09566666666666349,0.2747777777777747,1,1,2,WAIT
60,6006.0,125.15,125.21,125.201,125.279,125.09,9198.638461538461,0,0.05999999999998806,0.08955555555555558,0.45999999999999375,0.18522222222221907,0.09566666666666349,0.2747777777777747,1,-1,0,WAIT
61,9148.0,125.0,125.07,125.046,125.108,125.06,9198.638461538461,0,0.06999999999999318,0.08955555555555558,0.45999999999999375,0.18522222222221907,0.09566666666666349,0.2747777777777747,1,0,1,WAIT
62,15144.0,125.09,125.17,124.932,124.984,125.08,9198.638461538461,1,0.0799999999999983,0.08955555555555558,0.45999999999999375,0.18522222222221907,0.09566666666666349,0.2747777777777747,1,1,3,BUY
63,12581.0,124.87,124.92,124.803,124.859,124.87,9198.638461538461,0,0.04999999999999716,0.08955555555555558,0.45999999999999375,0.18522222222221907,0.09566666666666349,0.2747777777777747,1,1,2,WAIT
64,5273.0,125.21,125.26,125.065,125.132,125.12,9198.638461538461,0,0.05000000000001137,0.08955555555555558,0.45999999999999375,0.18522222222221907,0.09566666666666349,0.2747777777777747,1,0,1,WAIT
65,5041.0,124.91,124.96,124.931,124.994,124.92,9198.638461538461,0,0.04999999999999716,0.08955555555555558,0.45999999999999375,0.18522222222221907,0.09566666666666349,0.2747777777777747,1,-1,0,WAIT
66,5382.0,124.56,124.73,124.594,124.664,124.58,9198.638461538461,0,0.1700000000000017,0.08955555555555558,0.45999999999999375,0.18522222222221907,0.09566666666666349,0.2747777777777747,0,-1,-1,WAIT
67,7824.0,124.28,124.34,124.392,124.453,124.31,9198.638461538461,0,0.060000000000002274,0.08955555555555558,0.45999999999999375,0.18522222222221907,0.09566666666666349,0.2747777777777747,1,-1,0,WAIT
68,5833.0,123.93,123.96,124.06,124.122,123.95,9198.638461538461,0,0.029999999999986926,0.08955555555555558,0.45999999999999375,0.18522222222221907,0.09566666666666349,0.2747777777777747,1,-1,0,WAIT
69,37713.0,123.98,124.07,124.001,124.062,124.07,9198.638461538461,1,0.0899999999999892,0.08955555555555558,0.45999999999999375,0.18522222222221907,0.09566666666666349,0.2747777777777747,1,1,3,BUY
70,8541.0,123.61,123.69,123.812,123.873,123.67,9198.638461538461,0,0.0799999999999983,0.08955555555555558,0.45999999999999375,0.18522222222221907,0.09566666666666349,0.2747777777777747,1,-1,0,WAIT
71,6767.0,123.94,123.98,123.855,123.909,123.91,9198.638461538461,0,0.04000000000000625,0.08955555555555558,0.45999999999999375,0.18522222222221907,0.09566666666666349,0.2747777777777747,1,1,2,WAIT
72,9207.0,123.76,123.8,123.733,123.787,123.78,9198.638461538461,0,0.03999999999999204,0.08955555555555558,0.45999999999999375,0.18522222222221907,0.09566666666666349,0.2747777777777747,1,0,1,WAIT
73,10454.0,123.75,123.81,123.661,123.722,123.78,9198.638461538461,0,0.060000000000002274,0.08955555555555558,0.45999999999999375,0.18522222222221907,0.09566666666666349,0.2747777777777747,1,1,2,WAIT
74,10101.0,123.53,123.56,123.624,123.676,123.55,9198.638461538461,0,0.030000000000001137,0.08955555555555558,0.45999999999999375,0.18522222222221907,0.09566666666666349,0.2747777777777747,1,-1,0,WAIT
75,14281.0,123.54,123.6,123.508,123.554,123.61,9198.638461538461,1,0.05999999999998806,0.08955555555555558,0.45999999999999375,0.18522222222221907,0.09566666666666349,0.2747777777777747,1,1,3,BUY
76,29076.0,123.86,123.92,123.624,123.663,123.86,9198.638461538461,1,0.060000000000002274,0.08955555555555558,0.45999999999999375,0.18522222222221907,0.09566666666666349,0.2747777777777747,1,1,3,BUY
77,89375.0,124.58,124.6,124.055,124.089,124.59,9198.638461538461,1,0.01999999999999602,0.08955555555555558,0.45999999999999375,0.18522222222221907,0.09566666666666349,0.2747777777777747,1,1,3,BUY
78,46039.0,125.42,125.62,125.561,125.836,125.54,9198.638461538461,1,0.20000000000000284,0.08955555555555558,0.45999999999999375,0.18522222222221907,0.09566666666666349,0.2747777777777747,0,-1,0,WAIT
79,12187.0,124.56,124.82,124.677,124.918,124.68,9198.638461538461,0,0.2599999999999909,0.08955555555555558,0.45999999999999375,0.18522222222221907,0.09566666666666349,0.2747777777777747,0,0,0,WAIT
80,3850.0,124.01,124.21,124.229,124.438,124.1,9198.638461538461,-1,0.19999999999998863,0.08955555555555558,0.45999999999999375,0.18522222222221907,0.09566666666666349,0.2747777777777747,0,-1,-2,WAIT
81,5470.0,124.35,124.51,124.402,124.664,124.22,9198.638461538461,0,0.1600000000000108,0.08955555555555558,0.45999999999999375,0.18522222222221907,0.09566666666666349,0.2747777777777747,0,-1,-1,WAIT
82,3632.0,123.59,123.82,123.984,124.178,123.77,9198.638461538461,-1,0.22999999999998977,0.08955555555555558,0.45999999999999375,0.18522222222221907,0.09566666666666349,0.2747777777777747,0,-1,-2,WAIT
83,2994.0,123.39,123.53,123.384,123.54,123.44,9198.638461538461,-1,0.14000000000000057,0.08955555555555558,0.45999999999999375,0.18522222222221907,0.09566666666666349,0.2747777777777747,0,0,-1,WAIT
84,6321.0,123.12,123.23,123.093,123.22,123.12,9198.638461538461,0,0.10999999999999943,0.08955555555555558,0.45999999999999375,0.18522222222221907,0.09566666666666349,0.2747777777777747,0,0,0,WAIT
85,9426.0,122.45,122.57,122.8,122.904,122.44,9198.638461538461,0,0.11999999999999034,0.08955555555555558,0.45999999999999375,0.18522222222221907,0.09566666666666349,0.2747777777777747,0,-1,-1,WAIT
86,6610.0,122.93,123.02,122.686,122.791,122.95,9198.638461538461,0,0.0899999999999892,0.08955555555555558,0.45999999999999375,0.18522222222221907,0.09566666666666349,0.2747777777777747,1,1,2,WAIT
87,7355.0,123.12,123.2,123.323,123.433,123.21,9198.638461538461,0,0.0799999999999983,0.08955555555555558,0.45999999999999375,0.18522222222221907,0.09566666666666349,0.2747777777777747,1,-1,0,WAIT
88,5475.0,123.53,123.63,123.243,123.346,123.55,9198.638461538461,0,0.09999999999999432,0.08955555555555558,0.45999999999999375,0.18522222222221907,0.09566666666666349,0.2747777777777747,0,1,1,WAIT
89,4926.0,123.43,123.5,123.43,123.535,123.45,9198.638461538461,0,0.06999999999999318,0.08955555555555558,0.45999999999999375,0.18522222222221907,0.09566666666666349,0.2747777777777747,1,0,1,WAIT
90,5011.0,123.21,123.33,123.284,123.376,123.27,9198.638461538461,0,0.12000000000000455,0.08955555555555558,0.45999999999999375,0.18522222222221907,0.09566666666666349,0.2747777777777747,0,-1,-1,WAIT
91,7895.0,123.5,123.59,123.518,123.6,123.58,9198.638461538461,0,0.09000000000000341,0.08955555555555558,0.45999999999999375,0.18522222222221907,0.09566666666666349,0.2747777777777747,1,0,1,WAIT
92,15784.0,123.77,123.84,123.499,123.577,123.8,9198.638461538461,1,0.07000000000000739,0.08955555555555558,0.45999999999999375,0.18522222222221907,0.09566666666666349,0.2747777777777747,1,1,3,BUY
93,9228.0,123.1,123.19,123.225,123.311,123.15,9198.638461538461,0,0.09000000000000341,0.08955555555555558,0.45999999999999375,0.18522222222221907,0.09566666666666349,0.2747777777777747,1,-1,0,WAIT
94,6767.0,122.93,122.99,123.121,123.204,122.97,9198.638461538461,0,0.05999999999998806,0.08955555555555558,0.45999999999999375,0.18522222222221907,0.09566666666666349,0.2747777777777747,1,-1,0,WAIT
95,7160.0,122.41,122.47,122.523,122.604,122.46,9198.638461538461,0,0.060000000000002274,0.08955555555555558,0.45999999999999375,0.18522222222221907,0.09566666666666349,0.2747777777777747,1,-1,0,WAIT
96,6039.0,122.26,122.34,122.307,122.378,122.28,9198.638461538461,0,0.0799999999999983,0.08955555555555558,0.45999999999999375,0.18522222222221907,0.09566666666666349,0.2747777777777747,1,-1,0,WAIT
97,14072.0,121.91,121.97,122.064,122.139,122.0,9198.638461538461,1,0.060000000000002274,0.08955555555555558,0.45999999999999375,0.18522222222221907,0.09566666666666349,0.2747777777777747,1,-1,1,WAIT
98,5591.0,122.42,122.49,122.223,122.297,122.46,9198.638461538461,0,0.06999999999999318,0.08955555555555558,0.45999999999999375,0.18522222222221907,0.09566666666666349,0.2747777777777747,1,1,2,WAIT
99,6811.0,122.67,122.74,122.646,122.714,122.71,9198.638461538461,0,0.06999999999999318,0.08955555555555558,0.45999999999999375,0.18522222222221907,0.09566666666666349,0.2747777777777747,1,0,1,WAIT
100,4951.0,122.05,122.12,122.543,122.614,122.33,9198.638461538461,0,0.07000000000000739,0.08955555555555558,0.45999999999999375,0.18522222222221907,0.09566666666666349,0.2747777777777747,1,-1,0,WAIT
101,6096.0,122.19,122.29,122.09,122.169,122.25,9198.638461538461,0,0.10000000000000853,0.08955555555555558,0.45999999999999375,0.18522222222221907,0.09566666666666349,0.2747777777777747,0,1,1,WAIT
102,7912.0,122.34,122.41,122.264,122.333,122.35,9198.638461538461,0,0.06999999999999318,0.08955555555555558,0.45999999999999375,0.18522222222221907,0.09566666666666349,0.2747777777777747,1,1,2,WAIT
103,8678.0,122.23,122.28,122.323,122.407,122.25,9198.638461538461,0,0.04999999999999716,0.08955555555555558,0.45999999999999375,0.18522222222221907,0.09566666666666349,0.2747777777777747,1,-1,0,WAIT
104,5573.0,122.37,122.41,122.37,122.441,122.43,9198.638461538461,0,0.03999999999999204,0.08955555555555558,0.45999999999999375,0.18522222222221907,0.09566666666666349,0.2747777777777747,1,0,1,WAIT
105,5951.0,122.04,122.18,122.286,122.351,122.23,9198.638461538461,0,0.14000000000000057,0.08955555555555558,0.45999999999999375,0.18522222222221907,0.09566666666666349,0.2747777777777747,0,-1,-1,WAIT
106,6031.0,122.3,122.33,122.223,122.305,122.33,9198.638461538461,0,0.030000000000001137,0.08955555555555558,0.45999999999999375,0.18522222222221907,0.09566666666666349,0.2747777777777747,1,1,2,WAIT
107,5935.0,122.53,122.61,122.448,122.521,122.59,9198.638461538461,0,0.0799999999999983,0.08955555555555558,0.45999999999999375,0.18522222222221907,0.09566666666666349,0.2747777777777747,1,1,2,WAIT
108,9320.0,122.8,122.85,122.696,122.769,122.78,9198.638461538461,0,0.04999999999999716,0.08955555555555558,0.45999999999999375,0.18522222222221907,0.09566666666666349,0.2747777777777747,1,1,2,WAIT
109,5379.0,122.52,122.58,122.563,122.63,122.62,9198.638461538461,0,0.060000000000002274,0.08955555555555558,0.45999999999999375,0.18522222222221907,0.09566666666666349,0.2747777777777747,1,0,1,WAIT
110,6161.0,122.49,122.58,122.433,122.5,122.55,9198.638461538461,0,0.09000000000000341,0.08955555555555558,0.45999999999999375,0.18522222222221907,0.09566666666666349,0.2747777777777747,1,1,2,WAIT
111,11142.0,122.41,122.45,122.483,122.547,122.44,9198.638461538461,0,0.04000000000000625,0.08955555555555558,0.45999999999999375,0.18522222222221907,0.09566666666666349,0.2747777777777747,1,-1,0,WAIT
112,6314.0,122.53,122.66,122.487,122.547,122.56,9198.638461538461,0,0.12999999999999545,0.08955555555555558,0.45999999999999375,0.18522222222221907,0.09566666666666349,0.2747777777777747,0,1,1,WAIT
113,7200.0,122.23,122.32,122.371,122.439,122.24,9198.638461538461,0,0.0899999999999892,0.08955555555555558,0.45999999999999375,0.18522222222221907,0.09566666666666349,0.2747777777777747,1,-1,0,WAIT
114,9163.0,121.95,122.0,122.17,122.219,121.99,9198.638461538461,0,0.04999999999999716,0.08955555555555558,0.45999999999999375,0.18522222222221907,0.09566666666666349,0.2747777777777747,1,-1,0,WAIT
115,16614.0,121.66,121.71,121.808,121.846,121.71,9198.638461538461,1,0.04999999999999716,0.08955555555555558,0.45999999999999375,0.18522222222221907,0.09566666666666349,0.2747777777777747,1,-1,1,WAIT
116,78981.0,121.66,121.71,121.618,121.65,121.67,9198.638461538461,1,0.04999999999999716,0.08955555555555558,0.45999999999999375,0.18522222222221907,0.09566666666666349,0.2747777777777747,1,1,3,BUY
117,49967.0,122.34,122.56,122.656,122.937,122.4,9198.638461538461,1,0.21999999999999886,0.08955555555555558,0.45999999999999375,0.18522222222221907,0.09566666666666349,0.2747777777777747,0,-1,0,WAIT
118,12037.0,123.11,123.36,122.907,123.105,123.19,9198.638461538461,0,0.25,0.08955555555555558,0.45999999999999375,0.18522222222221907,0.09566666666666349,0.2747777777777747,0,1,1,WAIT
119,6147.0,123.85,123.98,123.25,123.394,123.86,9198.638461538461,0,0.13000000000000966,0.08955555555555558,0.45999999999999375,0.18522222222221907,0.09566666666666349,0.2747777777777747,0,1,1,WAIT
120,10364.0,124.82,124.91,124.454,124.59,124.92,9198.638461538461,0,0.09000000000000341,0.08955555555555558,0.45999999999999375,0.18522222222221907,0.09566666666666349,0.2747777777777747,1,1,2,WAIT
121,5437.0,124.18,124.32,124.521,124.665,124.24,9198.638461538461,0,0.13999999999998636,0.08955555555555558,0.45999999999999375,0.18522222222221907,0.09566666666666349,0.2747777777777747,0,-1,-1,WAIT
122,5769.0,124.33,124.45,124.397,124.533,124.42,9198.638461538461,0,0.12000000000000455,0.08955555555555558,0.45999999999999375,0.18522222222221907,0.09566666666666349,0.2747777777777747,0,0,0,WAIT
123,8508.0,124.39,124.48,124.588,124.691,124.51,9198.638461538461,0,0.09000000000000341,0.08955555555555558,0.45999999999999375,0.18522222222221907,0.09566666666666349,0.2747777777777747,1,-1,0,WAIT
124,5700.0,124.49,124.58,124.67,124.768,124.65,9198.638461538461,0,0.09000000000000341,0.08955555555555558,0.45999999999999375,0.18522222222221907,0.09566666666666349,0.2747777777777747,1,-1,0,WAIT
125,5111.0,124.39,124.47,124.305,124.405,124.38,9198.638461538461,0,0.0799999999999983,0.08955555555555558,0.45999999999999375,0.18522222222221907,0.09566666666666349,0.2747777777777747,1,0,1,WAIT
126,3952.0,124.33,124.42,124.186,124.298,124.39,9198.638461538461,-1,0.09000000000000341,0.08955555555555558,0.45999999999999375,0.18522222222221907,0.09566666666666349,0.2747777777777747,1,1,1,WAIT
127,5107.0,124.05,124.18,124.232,124.325,124.1,9198.638461538461,0,0.13000000000000966,0.08955555555555558,0.45999999999999375,0.18522222222221907,0.09566666666666349,0.2747777777777747,0,-1,-1,WAIT
128,2634.0,124.3,124.41,124.284,124.384,124.38,9198.638461538461,-1,0.10999999999999943,0.08955555555555558,0.45999999999999375,0.18522222222221907,0.09566666666666349,0.2747777777777747,0,0,-1,WAIT
129,5247.0,124.22,124.3,124.187,124.28,124.31,9198.638461538461,0,0.0799999999999983,0.08955555555555558,0.45999999999999375,0.18522222222221907,0.09566666666666349,0.2747777777777747,1,1,2,WAIT
130,4398.0,124.23,124.33,124.113,124.217,124.23,9198.638461538461,-1,0.09999999999999432,0.08955555555555558,0.45999999999999375,0.18522222222221907,0.09566666666666349,0.2747777777777747,0,1,0,WAIT
131,2631.0,124.23,124.31,124.273,124.357,124.31,9198.638461538461,-1,0.0799999999999983,0.08955555555555558,0.45999999999999375,0.18522222222221907,0.09566666666666349,0.2747777777777747,1,0,0,WAIT
132,4197.0,124.35,124.41,124.382,124.468,124.49,9198.638461538461,-1,0.060000000000002274,0.08955555555555558,0.45999999999999375,0.18522222222221907,0.09566666666666349,0.2747777777777747,1,1,1,WAIT
133,6858.0,124.21,124.3,124.082,124.16,124.27,9198.638461538461,0,0.09000000000000341,0.08955555555555558,0.45999999999999375,0.18522222222221907,0.09566666666666349,0.2747777777777747,1,1,2,WAIT
134,4256.0,124.07,124.16,123.99,124.083,124.15,9198.638461538461,-1,0.09000000000000341,0.08955555555555558,0.45999999999999375,0.18522222222221907,0.09566666666666349,0.2747777777777747,1,1,1,WAIT
135,4777.0,124.08,124.18,123.94,124.021,124.11,9198.638461538461,0,0.10000000000000853,0.08955555555555558,0.45999999999999375,0.18522222222221907,0.09566666666666349,0.2747777777777747,0,1,1,WAIT
136,2856.0,124.12,124.18,123.971,124.054,124.2,9198.638461538461,-1,0.060000000000002274,0.08955555555555558,0.45999999999999375,0.18522222222221907,0.09566666666666349,0.2747777777777747,1,1,1,WAIT
137,11211.0,124.17,124.24,124.244,124.328,124.21,9198.638461538461,0,0.06999999999999318,0.08955555555555558,0.45999999999999375,0.18522222222221907,0.09566666666666349,0.2747777777777747,1,-1,0,WAIT
138,7160.0,124.2,124.28,123.979,124.059,124.2,9198.638461538461,0,0.0799999999999983,0.08955555555555558,0.45999999999999375,0.18522222222221907,0.09566666666666349,0.2747777777777747,1,1,2,WAIT
139,3782.0,124.19,124.25,124.072,124.151,124.2,9198.638461538461,-1,0.060000000000002274,0.08955555555555558,0.45999999999999375,0.18522222222221907,0.09566666666666349,0.2747777777777747,1,1,1,WAIT
140,3701.0,123.63,123.71,123.788,123.86,123.6,9198.638461538461,-1,0.0799999999999983,0.08955555555555558,0.45999999999999375,0.18522222222221907,0.09566666666666349,0.2747777777777747,1,-1,-1,WAIT
141,3389.0,123.83,123.89,123.791,123.868,123.85,9198.638461538461,-1,0.060000000000002274,0.08955555555555558,0.45999999999999375,0.18522222222221907,0.09566666666666349,0.2747777777777747,1,0,0,WAIT
142,4006.0,124.16,124.2,124.03,124.095,124.18,9198.638461538461,-1,0.04000000000000625,0.08955555555555558,0.45999999999999375,0.18522222222221907,0.09566666666666349,0.2747777777777747,1,1,1,WAIT
143,3851.0,124.38,124.49,124.203,124.286,124.33,9198.638461538461,-1,0.10999999999999943,0.08955555555555558,0.45999999999999375,0.18522222222221907,0.09566666666666349,0.2747777777777747,0,1,0,WAIT
144,5013.0,124.19,124.27,124.343,124.406,124.23,9198.638461538461,0,0.0799999999999983,0.08955555555555558,0.45999999999999375,0.18522222222221907,0.09566666666666349,0.2747777777777747,1,-1,0,WAIT
145,4279.0,124.18,124.23,124.188,124.259,124.16,9198.638461538461,-1,0.04999999999999716,0.08955555555555558,0.45999999999999375,0.18522222222221907,0.09566666666666349,0.2747777777777747,1,-1,-1,WAIT
146,2524.0,124.09,124.14,124.194,124.264,124.14,9198.638461538461,-1,0.04999999999999716,0.08955555555555558,0.45999999999999375,0.18522222222221907,0.09566666666666349,0.2747777777777747,1,-1,-1,WAIT
147,5277.0,124.21,124.26,124.068,124.129,124.24,9198.638461538461,0,0.05000000000001137,0.08955555555555558,0.45999999999999375,0.18522222222221907,0.09566666666666349,0.2747777777777747,1,1,2,WAIT
148,8602.0,124.24,124.28,124.216,124.263,124.26,9198.638461538461,0,0.04000000000000625,0.08955555555555558,0.45999999999999375,0.18522222222221907,0.09566666666666349,0.2747777777777747,1,0,1,WAIT
149,18049.0,124.34,124.37,124.348,124.404,124.38,9198.638461538461,1,0.030000000000001137,0.08955555555555558,0.45999999999999375,0.18522222222221907,0.09566666666666349,0.2747777777777747,1,0,2,WAIT
150,11272.0,124.33,124.4,124.349,124.416,124.4,9198.638461538461,0,0.07000000000000739,0.08955555555555558,0.45999999999999375,0.18522222222221907,0.09566666666666349,0.2747777777777747,1,0,1,WAIT
151,38218.0,124.29,124.34,124.274,124.328,124.28,9198.638461538461,1,0.04999999999999716,0.08955555555555558,0.45999999999999375,0.18522222222221907,0.09566666666666349,0.2747777777777747,1,0,2,WAIT
152,31127.0,124.18,124.28,124.226,124.28,124.23,9198.638461538461,1,0.09999999999999432,0.08955555555555558,0.45999999999999375,0.18522222222221907,0.09566666666666349,0.2747777777777747,0,0,1,WAIT
153,39697.0,124.3,124.38,124.371,124.41,124.34,9198.638461538461,1,0.0799999999999983,0.08955555555555558,0.45999999999999375,0.18522222222221907,0.09566666666666349,0.2747777777777747,1,-1,1,WAIT
154,18468.0,124.02,124.04,124.22,124.255,124.04,9198.638461538461,1,0.020000000000010232,0.08955555555555558,0.45999999999999375,0.18522222222221907,0.09566666666666349,0.2747777777777747,1,-1,1,WAIT
155,78366.0,124.11,124.14,124.054,124.08,124.11,9198.638461538461,1,0.030000000000001137,0.08955555555555558,0.45999999999999375,0.18522222222221907,0.09566666666666349,0.2747777777777747,1,1,3,BUY
156,105421.0,127.34,127.54,127.768,128.103,127.46,9198.638461538461,1,0.20000000000000284,0.08955555555555558,0.45999999999999375,0.18522222222221907,0.09566666666666349,0.2747777777777747,0,-1,0,WAIT
157,44537.0,127.0,127.14,127.212,127.414,127.02,9198.638461538461,1,0.14000000000000057,0.08955555555555558,0.45999999999999375,0.18522222222221907,0.09566666666666349,0.2747777777777747,0,-1,0,WAIT
158,60898.0,127.89,128.04,127.504,127.694,127.97,9198.638461538461,1,0.14999999999999147,0.08955555555555558,0.45999999999999375,0.18522222222221907,0.09566666666666349,0.2747777777777747,0,1,2,WAIT
159,8126.0,128.0,128.12,127.912,128.081,128.05,9198.638461538461,0,0.12000000000000455,0.08955555555555558,0.45999999999999375,0.18522222222221907,0.09566666666666349,0.2747777777777747,0,0,0,WAIT
160,7240.0,127.22,127.4,127.366,127.527,127.25,9198.638461538461,0,0.18000000000000682,0.08955555555555558,0.45999999999999375,0.18522222222221907,0.09566666666666349,0.2747777777777747,0,-1,-1,WAIT
161,9328.0,127.28,127.39,127.314,127.454,127.34,9198.638461538461,0,0.10999999999999943,0.08955555555555558,0.45999999999999375,0.18522222222221907,0.09566666666666349,0.2747777777777747,0,0,0,WAIT
162,6267.0,127.09,127.25,127.274,127.407,127.18,9198.638461538461,0,0.1599999999999966,0.08955555555555558,0.45999999999999375,0.18522222222221907,0.09566666666666349,0.2747777777777747,0,-1,-1,WAIT
163,9244.0,126.72,126.87,127.033,127.145,126.91,9198.638461538461,0,0.15000000000000568,0.08955555555555558,0.45999999999999375,0.18522222222221907,0.09566666666666349,0.2747777777777747,0,-1,-1,WAIT
164,6286.0,126.37,126.45,126.59,126.7,126.41,9198.638461538461,0,0.0799999999999983,0.08955555555555558,0.45999999999999375,0.18522222222221907,0.09566666666666349,0.2747777777777747,1,-1,0,WAIT
165,8216.0,126.59,126.71,126.799,126.9,126.68,9198.638461538461,0,0.11999999999999034,0.08955555555555558,0.45999999999999375,0.18522222222221907,0.09566666666666349,0.2747777777777747,0,-1,-1,WAIT
166,9820.0,127.0,127.06,126.899,126.994,127.03,9198.638461538461,0,0.060000000000002274,0.08955555555555558,0.45999999999999375,0.18522222222221907,0.09566666666666349,0.2747777777777747,1,1,2,WAIT
167,4686.0,127.17,127.26,127.048,127.151,127.22,9198.638461538461,0,0.09000000000000341,0.08955555555555558,0.45999999999999375,0.18522222222221907,0.09566666666666349,0.2747777777777747,1,1,2,WAIT
168,33709.0,127.7,127.79,127.484,127.6,127.7,9198.638461538461,1,0.09000000000000341,0.08955555555555558,0.45999999999999375,0.18522222222221907,0.09566666666666349,0.2747777777777747,1,1,3,BUY
169,6961.0,127.79,127.87,127.92,128.016,127.81,9198.638461538461,0,0.0799999999999983,0.08955555555555558,0.45999999999999375,0.18522222222221907,0.09566666666666349,0.2747777777777747,1,-1,0,WAIT
170,8794.0,127.82,127.89,127.637,127.728,127.88,9198.638461538461,0,0.07000000000000739,0.08955555555555558,0.45999999999999375,0.18522222222221907,0.09566666666666349,0.2747777777777747,1,1,2,WAIT
171,22078.0,128.19,128.25,128.049,128.134,128.24,9198.638461538461,1,0.060000000000002274,0.08955555555555558,0.45999999999999375,0.18522222222221907,0.09566666666666349,0.2747777777777747,1,1,3,BUY
172,6003.0,127.2,127.27,127.723,127.821,127.21,9198.638461538461,0,0.06999999999999318,0.08955555555555558,0.45999999999999375,0.18522222222221907,0.09566666666666349,0.2747777777777747,1,-1,0,WAIT
173,8504.0,127.55,127.63,127.441,127.536,127.61,9198.638461538461,0,0.0799999999999983,0.08955555555555558,0.45999999999999375,0.18522222222221907,0.09566666666666349,0.2747777777777747,1,1,2,WAIT
174,4579.0,127.74,127.83,127.694,127.801,127.75,9198.638461538461,-1,0.09000000000000341,0.08955555555555558,0.45999999999999375,0.18522222222221907,0.09566666666666349,0.2747777777777747,1,0,0,WAIT
175,9578.0,127.2,127.28,127.642,127.731,127.22,9198.638461538461,0,0.0799999999999983,0.08955555555555558,0.45999999999999375,0.18522222222221907,0.09566666666666349,0.2747777777777747,1,-1,0,WAIT
176,5253.0,127.18,127.28,127.176,127.268,127.18,9198.638461538461,0,0.09999999999999432,0.08955555555555558,0.45999999999999375,0.18522222222221907,0.09566666666666349,0.2747777777777747,0,0,0,WAIT
177,9017.0,127.34,127.42,127.307,127.393,127.3,9198.638461538461,0,0.0799999999999983,0.08955555555555558,0.45999999999999375,0.18522222222221907,0.09566666666666349,0.2747777777777747,1,-1,0,WAIT
178,10530.0,127.86,127.94,127.719,127.793,127.91,9198.638461538461,0,0.0799999999999983,0.08955555555555558,0.45999999999999375,0.18522222222221907,0.09566666666666349,0.2747777777777747,1,1,2,WAIT
179,7276.0,127.75,127.81,127.908,127.986,127.77,9198.638461538461,0,0.060000000000002274,0.08955555555555558,0.45999999999999375,0.18522222222221907,0.09566666666666349,0.2747777777777747,1,-1,0,WAIT
180,9065.0,127.59,127.66,127.66,127.726,127.7,9198.638461538461,0,0.06999999999999318,0.08955555555555558,0.45999999999999375,0.18522222222221907,0.09566666666666349,0.2747777777777747,1,0,1,WAIT
181,7178.0,127.64,127.68,127.647,127.714,127.67,9198.638461538461,0,0.04000000000000625,0.08955555555555558,0.45999999999999375,0.18522222222221907,0.09566666666666349,0.2747777777777747,1,0,1,WAIT
182,6505.0,127.87,127.92,127.6,127.67,127.9,9198.638461538461,0,0.04999999999999716,0.08955555555555558,0.45999999999999375,0.18522222222221907,0.09566666666666349,0.2747777777777747,1,1,2,WAIT
183,8805.0,127.66,127.74,127.87,127.934,127.66,9198.638461538461,0,0.0799999999999983,0.08955555555555558,0.45999999999999375,0.18522222222221907,0.09566666666666349,0.2747777777777747,1,-1,0,WAIT
184,6014.0,127.72,127.76,127.768,127.832,127.71,9198.638461538461,0,0.04000000000000625,0.08955555555555558,0.45999999999999375,0.18522222222221907,0.09566666666666349,0.2747777777777747,1,-1,0,WAIT
185,8276.0,127.79,127.87,127.696,127.764,127.86,9198.638461538461,0,0.0799999999999983,0.08955555555555558,0.45999999999999375,0.18522222222221907,0.09566666666666349,0.2747777777777747,1,1,2,WAIT
186,7490.0,127.83,127.89,127.826,127.891,127.87,9198.638461538461,0,0.060000000000002274,0.08955555555555558,0.45999999999999375,0.18522222222221907,0.09566666666666349,0.2747777777777747,1,0,1,WAIT
187,6991.0,127.94,127.98,127.94,127.998,128.01,9198.638461538461,0,0.04000000000000625,0.08955555555555558,0.45999999999999375,0.18522222222221907,0.09566666666666349,0.2747777777777747,1,1,2,WAIT
188,11021.0,127.57,127.73,127.723,127.781,127.71,9198.638461538461,0,0.1600000000000108,0.08955555555555558,0.45999999999999375,0.18522222222221907,0.09566666666666349,0.2747777777777747,0,-1,-1,WAIT
189,6476.0,127.66,127.71,127.584,127.649,127.68,9198.638461538461,0,0.04999999999999716,0.08955555555555558,0.45999999999999375,0.18522222222221907,0.09566666666666349,0.2747777777777747,1,1,2,WAIT
190,8372.0,127.7,127.72,127.635,127.688,127.7,9198.638461538461,0,0.01999999999999602,0.08955555555555558,0.45999999999999375,0.18522222222221907,0.09566666666666349,0.2747777777777747,1,1,2,WAIT
191,6978.0,127.95,127.96,127.845,127.899,127.96,9198.638461538461,0,0.009999999999990905,0.08955555555555558,0.45999999999999375,0.18522222222221907,0.09566666666666349,0.2747777777777747,1,1,2,WAIT
192,10230.0,127.6,127.63,127.753,127.798,127.63,9198.638461538461,0,0.030000000000001137,0.08955555555555558,0.45999999999999375,0.18522222222221907,0.09566666666666349,0.2747777777777747,1,-1,0,WAIT
193,32285.0,127.84,127.86,127.699,127.734,127.84,9198.638461538461,1,0.01999999999999602,0.08955555555555558,0.45999999999999375,0.18522222222221907,0.09566666666666349,0.2747777777777747,1,1,3,BUY
194,135202.0,127.49,127.51,127.783,127.813,127.5,9198.638461538461,1,0.020000000000010232,0.08955555555555558,0.45999999999999375,0.18522222222221907,0.09566666666666349,0.2747777777777747,1,-1,1,WAIT
195,63246.0,128.63,128.74,128.434,128.72,128.68,9198.638461538461,1,0.11000000000001364,0.08955555555555558,0.45999999999999375,0.18522222222221907,0.09566666666666349,0.2747777777777747,0,0,1,WAIT
196,13869.0,127.62,127.94,128.201,128.39,127.71,9198.638461538461,1,0.3199999999999932,0.08955555555555558,0.45999999999999375,0.18522222222221907,0.09566666666666349,0.2747777777777747,-1,-1,-1,WAIT
197,5687.0,127.29,127.42,127.55,127.703,127.42,9198.638461538461,0,0.12999999999999545,0.08955555555555558,0.45999999999999375,0.18522222222221907,0.09566666666666349,0.2747777777777747,0,-1,-1,WAIT
198,6382.0,126.73,126.87,127.097,127.215,126.89,9198.638461538461,0,0.14000000000000057,0.08955555555555558,0.45999999999999375,0.18522222222221907,0.09566666666666349,0.2747777777777747,0,-1,-1,WAIT
199,5939.0,126.49,126.57,126.541,126.64,126.55,9198.638461538461,0,0.0799999999999983,0.08955555555555558,0.45999999999999375,0.18522222222221907,0.09566666666666349,0.2747777777777747,1,0,1,WAIT
200,6935.0,126.31,126.48,126.386,126.502,126.3,9198.638461538461,0,0.1700000000000017,0.08955555555555558,0.45999999999999375,0.18522222222221907,0.09566666666666349,0.2747777777777747,0,-1,-1,WAIT
201,29227.0,124.97,125.08,125.208,125.366,125.03,9198.638461538461,1,0.10999999999999943,0.08955555555555558,0.45999999999999375,0.18522222222221907,0.09566666666666349,0.2747777777777747,0,-1,0,WAIT
202,5293.0,125.85,125.95,125.605,125.722,125.94,9198.638461538461,0,0.10000000000000853,0.08955555555555558,0.45999999999999375,0.18522222222221907,0.09566666666666349,0.2747777777777747,0,1,1,WAIT
203,6675.0,125.97,126.06,125.91,126.023,125.88,9198.638461538461,0,0.09000000000000341,0.08955555555555558,0.45999999999999375,0.18522222222221907,0.09566666666666349,0.2747777777777747,1,-1,0,WAIT
204,5153.0,126.31,126.36,126.111,126.217,126.31,9198.638461538461,0,0.04999999999999716,0.08955555555555558,0.45999999999999375,0.18522222222221907,0.09566666666666349,0.2747777777777747,1,1,2,WAIT
205,27094.0,126.68,126.74,126.334,126.417,126.69,9198.638461538461,1,0.05999999999998806,0.08955555555555558,0.45999999999999375,0.18522222222221907,0.09566666666666349,0.2747777777777747,1,1,3,BUY
206,9258.0,126.92,127.06,126.81,126.9,126.97,9198.638461538461,0,0.14000000000000057,0.08955555555555558,0.45999999999999375,0.18522222222221907,0.09566666666666349,0.2747777777777747,0,1,1,WAIT
207,5661.0,126.74,126.79,126.839,126.921,126.74,9198.638461538461,0,0.05000000000001137,0.08955555555555558,0.45999999999999375,0.18522222222221907,0.09566666666666349,0.2747777777777747,1,-1,0,WAIT
208,3641.0,126.54,126.6,126.741,126.819,126.57,9198.638461538461,-1,0.05999999999998806,0.08955555555555558,0.45999999999999375,0.18522222222221907,0.09566666666666349,0.2747777777777747,1,-1,-1,WAIT
209,5777.0,126.66,126.76,126.4,126.475,126.71,9198.638461538461,0,0.10000000000000853,0.08955555555555558,0.45999999999999375,0.18522222222221907,0.09566666666666349,0.2747777777777747,0,1,1,WAIT
210,1565.0,126.77,126.84,126.864,126.953,126.98,9198.638461538461,-1,0.07000000000000739,0.08955555555555558,0.45999999999999375,0.18522222222221907,0.09566666666666349,0.2747777777777747,1,1,1,WAIT
211,3107.0,126.74,126.81,126.731,126.825,126.78,9198.638461538461,-1,0.07000000000000739,0.08955555555555558,0.45999999999999375,0.18522222222221907,0.09566666666666349,0.2747777777777747,1,0,0,WAIT
212,3479.0,127.07,127.16,126.77,126.855,127.04,9198.638461538461,-1,0.09000000000000341,0.08955555555555558,0.45999999999999375,0.18522222222221907,0.09566666666666349,0.2747777777777747,1,1,1,WAIT
213,2119.0,126.99,127.06,126.982,127.068,127.13,9198.638461538461,-1,0.07000000000000739,0.08955555555555558,0.45999999999999375,0.18522222222221907,0.09566666666666349,0.2747777777777747,1,1,1,WAIT
214,4189.0,127.19,127.23,127.108,127.18,127.19,9198.638461538461,-1,0.04000000000000625,0.08955555555555558,0.45999999999999375,0.18522222222221907,0.09566666666666349,0.2747777777777747,1,1,1,WAIT
215,3555.0,126.97,127.03,127.095,127.16,127.0,9198.638461538461,-1,0.060000000000002274,0.08955555555555558,0.45999999999999375,0.18522222222221907,0.09566666666666349,0.2747777777777747,1,-1,-1,WAIT
216,3582.0,127.22,127.33,127.252,127.313,127.32,9198.638461538461,-1,0.10999999999999943,0.08955555555555558,0.45999999999999375,0.18522222222221907,0.09566666666666349,0.2747777777777747,0,1,0,WAIT
217,4426.0,127.06,127.17,127.268,127.335,127.14,9198.638461538461,-1,0.10999999999999943,0.08955555555555558,0.45999999999999375,0.18522222222221907,0.09566666666666349,0.2747777777777747,0,-1,-2,WAIT
218,5960.0,127.35,127.39,127.299,127.365,127.45,9198.638461538461,0,0.04000000000000625,0.08955555555555558,0.45999999999999375,0.18522222222221907,0.09566666666666349,0.2747777777777747,1,1,2,WAIT
219,3461.0,127.42,127.48,127.325,127.39,127.43,9198.638461538461,-1,0.060000000000002274,0.08955555555555558,0.45999999999999375,0.18522222222221907,0.09566666666666349,0.2747777777777747,1,1,1,WAIT
220,7669.0,127.66,127.74,127.552,127.616,127.68,9198.638461538461,0,0.0799999999999983,0.08955555555555558,0.45999999999999375,0.18522222222221907,0.09566666666666349,0.2747777777777747,1,1,2,WAIT
221,5460.0,127.91,128.04,127.819,127.895,127.94,9198.638461538461,0,0.12999999999999545,0.08955555555555558,0.45999999999999375,0.18522222222221907,0.09566666666666349,0.2747777777777747,0,1,1,WAIT
222,8481.0,126.37,126.49,126.671,126.947,126.43,9198.638461538461,0,0.11999999999999034,0.08955555555555558,0.45999999999999375,0.18522222222221907,0.09566666666666349,0.2747777777777747,0,-1,-1,WAIT
223,10264.0,127.16,127.29,126.709,126.844,127.2,9198.638461538461,0,0.13000000000000966,0.08955555555555558,0.45999999999999375,0.18522222222221907,0.09566666666666349,0.2747777777777747,0,1,1,WAIT
224,5896.0,127.41,127.51,127.153,127.262,127.41,9198.638461538461,0,0.10000000000000853,0.08955555555555558,0.45999999999999375,0.18522222222221907,0.09566666666666349,0.2747777777777747,0,1,1,WAIT
225,12415.0,126.6,126.69,127.068,127.207,126.5,9198.638461538461,0,0.09000000000000341,0.08955555555555558,0.45999999999999375,0.18522222222221907,0.09566666666666349,0.2747777777777747,1,-1,0,WAIT
226,11888.0,126.84,126.97,126.71,126.896,127.04,9198.638461538461,0,0.12999999999999545,0.08955555555555558,0.45999999999999375,0.18522222222221907,0.09566666666666349,0.2747777777777747,0,1,1,WAIT
227,2611.0,126.69,126.81,126.599,126.755,126.61,9198.638461538461,-1,0.12000000000000455,0.08955555555555558,0.45999999999999375,0.18522222222221907,0.09566666666666349,0.2747777777777747,0,0,-1,WAIT
228,5792.0,127.66,127.8,127.279,127.429,127.81,9198.638461538461,0,0.14000000000000057,0.08955555555555558,0.45999999999999375,0.18522222222221907,0.09566666666666349,0.2747777777777747,0,1,1,WAIT
229,6350.0,127.5,127.6,127.84,127.969,127.59,9198.638461538461,0,0.09999999999999432,0.08955555555555558,0.45999999999999375,0.18522222222221907,0.09566666666666349,0.2747777777777747,0,-1,-1,WAIT
230,5785.0,126.76,126.88,127.32,127.423,126.99,9198.638461538461,0,0.11999999999999034,0.08955555555555558,0.45999999999999375,0.18522222222221907,0.09566666666666349,0.2747777777777747,0,-1,-1,WAIT
231,8569.0,126.51,126.57,126.463,126.556,126.47,9198.638461538461,0,0.05999999999998806,0.08955555555555558,0.45999999999999375,0.18522222222221907,0.09566666666666349,0.2747777777777747,1,0,1,WAIT
232,18468.0,126.42,126.49,126.47,126.53,126.46,9198.638461538461,1,0.06999999999999318,0.08955555555555558,0.45999999999999375,0.18522222222221907,0.09566666666666349,0.2747777777777747,1,-1,1,WAIT
233,88049.0,125.97,125.98,126.413,126.448,125.92,9198.638461538461,1,0.010000000000005116,0.08955555555555558,0.45999999999999375,0.18522222222221907,0.09566666666666349,0.2747777777777747,1,-1,1,WAIT
234,62142.0,125.02,125.16,124.201,124.531,124.97,9198.638461538461,1,0.14000000000000057,0.08955555555555558,0.45999999999999375,0.18522222222221907,0.09566666666666349,0.2747777777777747,0,1,2,WAIT
235,10539.0,124.97,125.21,125.052,125.294,125.08,9198.638461538461,0,0.23999999999999488,0.08955555555555558,0.45999999999999375,0.18522222222221907,0.09566666666666349,0.2747777777777747,0,0,0,WAIT
236,8241.0,124.72,124.9,125.131,125.304,124.75,9198.638461538461,0,0.18000000000000682,0.08955555555555558,0.45999999999999375,0.18522222222221907,0.09566666666666349,0.2747777777777747,0,-1,-1,WAIT
237,8621.0,124.36,124.45,124.663,124.802,124.38,9198.638461538461,0,0.09000000000000341,0.08955555555555558,0.45999999999999375,0.18522222222221907,0.09566666666666349,0.2747777777777747,1,-1,0,WAIT
238,7326.0,124.78,124.85,124.328,124.434,124.69,9198.638461538461,0,0.06999999999999318,0.08955555555555558,0.45999999999999375,0.18522222222221907,0.09566666666666349,0.2747777777777747,1,1,2,WAIT
239,6692.0,124.93,125.02,124.765,124.873,124.93,9198.638461538461,0,0.0899999999999892,0.08955555555555558,0.45999999999999375,0.18522222222221907,0.09566666666666349,0.2747777777777747,1,1,2,WAIT
240,6780.0,125.31,125.52,125.068,125.181,125.47,9198.638461538461,0,0.20999999999999375,0.08955555555555558,0.45999999999999375,0.18522222222221907,0.09566666666666349,0.2747777777777747,0,1,1,WAIT
241,10649.0,125.31,125.39,125.552,125.659,125.37,9198.638461538461,0,0.0799999999999983,0.08955555555555558,0.45999999999999375,0.18522222222221907,0.09566666666666349,0.2747777777777747,1,-1,0,WAIT
242,4494.0,125.44,125.5,125.281,125.398,125.34,9198.638461538461,-1,0.060000000000002274,0.08955555555555558,0.45999999999999375,0.18522222222221907,0.09566666666666349,0.2747777777777747,1,0,0,WAIT
243,6627.0,125.19,125.29,125.567,125.671,125.29,9198.638461538461,0,0.10000000000000853,0.08955555555555558,0.45999999999999375,0.18522222222221907,0.09566666666666349,0.2747777777777747,0,-1,-1,WAIT
244,4986.0,124.94,125.04,124.967,125.068,125.04,9198.638461538461,0,0.10000000000000853,0.08955555555555558,0.45999999999999375,0.18522222222221907,0.09566666666666349,0.2747777777777747,0,0,0,WAIT
245,7344.0,124.28,124.37,124.612,124.702,124.3,9198.638461538461,0,0.09000000000000341,0.08955555555555558,0.45999999999999375,0.18522222222221907,0.09566666666666349,0.2747777777777747,1,-1,0,WAIT
246,6136.0,123.88,123.92,124.016,124.103,123.92,9198.638461538461,0,0.04000000000000625,0.08955555555555558,0.45999999999999375,0.18522222222221907,0.09566666666666349,0.2747777777777747,1,-1,0,WAIT
247,6365.0,123.83,123.88,123.715,123.791,123.82,9198.638461538461,0,0.04999999999999716,0.08955555555555558,0.45999999999999375,0.18522222222221907,0.09566666666666349,0.2747777777777747,1,1,2,WAIT
248,5908.0,124.23,124.28,124.077,124.153,124.25,9198.638461538461,0,0.04999999999999716,0.08955555555555558,0.45999999999999375,0.18522222222221907,0.09566666666666349,0.2747777777777747,1,1,2,WAIT
249,4079.0,124.75,124.85,124.441,124.519,124.82,9198.638461538461,-1,0.09999999999999432,0.08955555555555558,0.45999999999999375,0.18522222222221907,0.09566666666666349,0.2747777777777747,0,1,0,WAIT
250,7658.0,125.05,125.11,124.944,125.024,125.06,9198.638461538461,0,0.060000000000002274,0.08955555555555558,0.45999999999999375,0.18522222222221907,0.09566666666666349,0.2747777777777747,1,1,2,WAIT
251,5905.0,125.26,125.34,125.15,125.228,125.31,9198.638461538461,0,0.0799999999999983,0.08955555555555558,0.45999999999999375,0.18522222222221907,0.09566666666666349,0.2747777777777747,1,1,2,WAIT
252,5059.0,125.12,125.21,125.267,125.342,125.2,9198.638461538461,0,0.0899999999999892,0.08955555555555558,0.45999999999999375,0.18522222222221907,0.09566666666666349,0.2747777777777747,1,-1,0,WAIT
253,6027.0,125.17,125.21,125.183,125.252,125.2,9198.638461538461,0,0.03999999999999204,0.08955555555555558,0.45999999999999375,0.18522222222221907,0.09566666666666349,0.2747777777777747,1,0,1,WAIT
254,5047.0,125.71,125.82,125.464,125.534,125.72,9198.638461538461,0,0.10999999999999943,0.08955555555555558,0.45999999999999375,0.18522222222221907,0.09566666666666349,0.2747777777777747,0,1,1,WAIT
255,3036.0,125.57,125.63,125.594,125.671,125.53,9198.638461538461,-1,0.060000000000002274,0.08955555555555558,0.45999999999999375,0.18522222222221907,0.09566666666666349,0.2747777777777747,1,-1,-1,WAIT
256,4826.0,125.32,125.37,125.612,125.677,125.39,9198.638461538461,0,0.05000000000001137,0.08955555555555558,0.45999999999999375,0.18522222222221907,0.09566666666666349,0.2747777777777747,1,-1,0,WAIT
257,2509.0,125.59,125.65,125.44,125.514,125.65,9198.638461538461,-1,0.060000000000002274,0.08955555555555558,0.45999999999999375,0.18522222222221907,0.09566666666666349,0.2747777777777747,1,1,1,WAIT
258,5905.0,125.84,125.94,125.692,125.76,125.87,9198.638461538461,0,0.09999999999999432,0.08955555555555558,0.45999999999999375,0.18522222222221907,0.09566666666666349,0.2747777777777747,0,1,1,WAIT
259,6746.0,125.34,125.43,125.665,125.726,125.37,9198.638461538461,0,0.09000000000000341,0.08955555555555558,0.45999999999999375,0.18522222222221907,0.09566666666666349,0.2747777777777747,1,-1,0,WAIT
260,5804.0,125.6,125.7,125.509,125.579,125.67,9198.638461538461,0,0.10000000000000853,0.08955555555555558,0.45999999999999375,0.18522222222221907,0.09566666666666349,0.2747777777777747,0,1,1,WAIT
261,2208.0,125.36,125.43,125.583,125.653,125.38,9198.638461538461,-1,0.07000000000000739,0.08955555555555558,0.45999999999999375,0.18522222222221907,0.09566666666666349,0.2747777777777747,1,-1,-1,WAIT
262,4088.0,125.68,125.73,125.613,125.683,125.71,9198.638461538461,-1,0.04999999999999716,0.08955555555555558,0.45999999999999375,0.18522222222221907,0.09566666666666349,0.2747777777777747,1,1,1,WAIT
263,4257.0,125.63,125.68,125.661,125.729,125.62,9198.638461538461,-1,0.05000000000001137,0.08955555555555558,0.45999999999999375,0.18522222222221907,0.09566666666666349,0.2747777777777747,1,-1,-1,WAIT
264,10491.0,126.03,126.13,125.811,125.876,126.06,9198.638461538461,0,0.09999999999999432,0.08955555555555558,0.45999999999999375,0.18522222222221907,0.09566666666666349,0.2747777777777747,0,1,1,WAIT
265,15890.0,125.61,125.66,125.831,125.907,125.64,9198.638461538461,1,0.04999999999999716,0.08955555555555558,0.45999999999999375,0.18522222222221907,0.09566666666666349,0.2747777777777747,1,-1,1,WAIT
266,8165.0,126.16,126.22,125.784,125.848,126.15,9198.638461538461,0,0.060000000000002274,0.08955555555555558,0.45999999999999375,0.18522222222221907,0.09566666666666349,0.2747777777777747,1,1,2,WAIT
267,5889.0,126.11,126.18,125.998,126.057,126.1,9198.638461538461,0,0.07000000000000739,0.08955555555555558,0.45999999999999375,0.18522222222221907,0.09566666666666349,0.2747777777777747,1,1,2,WAIT
268,21079.0,126.17,126.27,126.082,126.156,126.21,9198.638461538461,1,0.09999999999999432,0.08955555555555558,0.45999999999999375,0.18522222222221907,0.09566666666666349,0.2747777777777747,0,1,2,WAIT
269,6158.0,126.19,126.23,126.189,126.257,126.23,9198.638461538461,0,0.04000000000000625,0.08955555555555558,0.45999999999999375,0.18522222222221907,0.09566666666666349,0.2747777777777747,1,0,1,WAIT
270,16999.0,126.43,126.48,126.379,126.438,126.43,9198.638461538461,1,0.04999999999999716,0.08955555555555558,0.45999999999999375,0.18522222222221907,0.09566666666666349,0.2747777777777747,1,0,2,WAIT
271,24240.0,126.48,126.52,126.526,126.581,126.51,9198.638461538461,1,0.03999999999999204,0.08955555555555558,0.45999999999999375,0.18522222222221907,0.09566666666666349,0.2747777777777747,1,-1,1,WAIT
272,84702.0,126.63,126.67,126.497,126.533,126.64,9198.638461538461,1,0.04000000000000625,0.08955555555555558,0.45999999999999375,0.18522222222221907,0.09566666666666349,0.2747777777777747,1,1,3,BUY
273,591231.0,123.53,123.74,124.732,125.04,123.57,9198.638461538461,1,0.20999999999999375,0.08955555555555558,0.45999999999999375,0.18522222222221907,0.09566666666666349,0.2747777777777747,0,-1,0,WAIT
274,16436.0,123.4,123.59,123.322,123.543,123.5,9198.638461538461,1,0.18999999999999773,0.08955555555555558,0.45999999999999375,0.18522222222221907,0.09566666666666349,0.2747777777777747,0,0,1,WAIT
275,5551.0,123.75,123.92,123.52,123.732,124.08,9198.638461538461,0,0.1700000000000017,0.08955555555555558,0.45999999999999375,0.18522222222221907,0.09566666666666349,0.2747777777777747,0,1,1,WAIT
276,6673.0,123.49,123.63,123.593,123.792,123.65,9198.638461538461,0,0.14000000000000057,0.08955555555555558,0.45999999999999375,0.18522222222221907,0.09566666666666349,0.2747777777777747,0,0,0,WAIT
277,7988.0,123.13,123.23,123.149,123.32,123.03,9198.638461538461,0,0.10000000000000853,0.08955555555555558,0.45999999999999375,0.18522222222221907,0.09566666666666349,0.2747777777777747,0,-1,-1,WAIT
278,9081.0,122.88,122.96,123.145,123.264,122.91,9198.638461538461,0,0.0799999999999983,0.08955555555555558,0.45999999999999375,0.18522222222221907,0.09566666666666349,0.2747777777777747,1,-1,0,WAIT
279,11872.0,122.65,122.72,122.608,122.709,122.78,9198.638461538461,0,0.06999999999999318,0.08955555555555558,0.45999999999999375,0.18522222222221907,0.09566666666666349,0.2747777777777747,1,1,2,WAIT
280,9397.0,123.0,123.05,122.823,122.925,123.0,9198.638461538461,0,0.04999999999999716,0.08955555555555558,0.45999999999999375,0.18522222222221907,0.09566666666666349,0.2747777777777747,1,1,2,WAIT
281,35706.0,122.88,122.98,122.778,122.874,122.87,9198.638461538461,1,0.10000000000000853,0.08955555555555558,0.45999999999999375,0.18522222222221907,0.09566666666666349,0.2747777777777747,0,0,1,WAIT
282,4026.0,123.62,123.71,123.261,123.389,123.58,9198.638461538461,-1,0.0899999999999892,0.08955555555555558,0.45999999999999375,0.18522222222221907,0.09566666666666349,0.2747777777777747,1,1,1,WAIT
283,9926.0,123.63,123.71,123.51,123.613,123.65,9198.638461538461,0,0.0799999999999983,0.08955555555555558,0.45999999999999375,0.18522222222221907,0.09566666666666349,0.2747777777777747,1,1,2,WAIT
284,6618.0,123.86,123.97,123.763,123.856,123.99,9198.638461538461,0,0.10999999999999943,0.08955555555555558,0.45999999999999375,0.18522222222221907,0.09566666666666349,0.2747777777777747,0,1,1,WAIT
285,10064.0,124.08,124.16,123.97,124.063,124.14,9198.638461538461,0,0.0799999999999983,0.08955555555555558,0.45999999999999375,0.18522222222221907,0.09566666666666349,0.2747777777777747,1,1,2,WAIT
286,5600.0,123.81,123.88,124.033,124.114,124.04,9198.638461538461,0,0.06999999999999318,0.08955555555555558,0.45999999999999375,0.18522222222221907,0.09566666666666349,0.2747777777777747,1,0,1,WAIT
287,12916.0,123.64,123.76,123.7,123.783,123.68,9198.638461538461,0,0.12000000000000455,0.08955555555555558,0.45999999999999375,0.18522222222221907,0.09566666666666349,0.2747777777777747,0,-1,-1,WAIT
288,12261.0,124.26,124.36,124.443,124.556,124.33,9198.638461538461,0,0.09999999999999432,0.08955555555555558,0.45999999999999375,0.18522222222221907,0.09566666666666349,0.2747777777777747,0,-1,-1,WAIT
289,12274.0,124.17,124.23,123.979,124.057,124.2,9198.638461538461,0,0.060000000000002274,0.08955555555555558,0.45999999999999375,0.18522222222221907,0.09566666666666349,0.2747777777777747,1,1,2,WAIT
290,8069.0,123.84,123.91,123.943,124.007,123.84,9198.638461538461,0,0.06999999999999318,0.08955555555555558,0.45999999999999375,0.18522222222221907,0.09566666666666349,0.2747777777777747,1,-1,0,WAIT
291,9079.0,124.03,124.1,124.119,124.182,124.05,9198.638461538461,0,0.06999999999999318,0.08955555555555558,0.45999999999999375,0.18522222222221907,0.09566666666666349,0.2747777777777747,1,-1,0,WAIT
292,5136.0,124.26,124.3,124.028,124.098,124.27,9198.638461538461,0,0.03999999999999204,0.08955555555555558,0.45999999999999375,0.18522222222221907,0.09566666666666349,0.2747777777777747,1,1,2,WAIT
293,7941.0,123.8,123.85,124.023,124.094,123.83,9198.638461538461,0,0.04999999999999716,0.08955555555555558,0.45999999999999375,0.18522222222221907,0.09566666666666349,0.2747777777777747,1,-1,0,WAIT
294,6665.0,124.0,124.05,123.846,123.904,124.05,9198.638461538461,0,0.04999999999999716,0.08955555555555558,0.45999999999999375,0.18522222222221907,0.09566666666666349,0.2747777777777747,1,1,2,WAIT
295,12071.0,123.86,123.91,123.955,124.006,123.88,9198.638461538461,0,0.04999999999999716,0.08955555555555558,0.45999999999999375,0.18522222222221907,0.09566666666666349,0.2747777777777747,1,-1,0,WAIT
296,8117.0,124.22,124.26,123.954,124.012,124.21,9198.638461538461,0,0.04000000000000625,0.08955555555555558,0.45999999999999375,0.18522222222221907,0.09566666666666349,0.2747777777777747,1,1,2,WAIT
297,6143.0,124.19,124.24,124.326,124.378,124.34,9198.638461538461,0,0.04999999999999716,0.08955555555555558,0.45999999999999375,0.18522222222221907,0.09566666666666349,0.2747777777777747,1,0,1,WAIT
298,4851.0,124.08,124.15,124.023,124.076,124.09,9198.638461538461,0,0.07000000000000739,0.08955555555555558,0.45999999999999375,0.18522222222221907,0.09566666666666349,0.2747777777777747,1,1,2,WAIT
299,7526.0,124.39,124.43,124.162,124.217,124.39,9198.638461538461,0,0.04000000000000625,0.08955555555555558,0.45999999999999375,0.18522222222221907,0.09566666666666349,0.2747777777777747,1,1,2,WAIT
300,15537.0,124.4,124.46,124.382,124.431,124.43,9198.638461538461,1,0.05999999999998806,0.08955555555555558,0.45999999999999375,0.18522222222221907,0.09566666666666349,0.2747777777777747,1,0,2,WAIT
301,12815.0,124.73,124.79,124.629,124.674,124.74,9198.638461538461,0,0.060000000000002274,0.08955555555555558,0.45999999999999375,0.18522222222221907,0.09566666666666349,0.2747777777777747,1,1,2,WAIT
302,6922.0,124.86,124.91,124.678,124.722,124.88,9198.638461538461,0,0.04999999999999716,0.08955555555555558,0.45999999999999375,0.18522222222221907,0.09566666666666349,0.2747777777777747,1,1,2,WAIT
303,8832.0,124.67,124.73,124.811,124.856,124.74,9198.638461538461,0,0.060000000000002274,0.08955555555555558,0.45999999999999375,0.18522222222221907,0.09566666666666349,0.2747777777777747,1,-1,0,WAIT
304,7556.0,124.97,125.0,124.853,124.895,124.95,9198.638461538461,0,0.030000000000001137,0.08955555555555558,0.45999999999999375,0.18522222222221907,0.09566666666666349,0.2747777777777747,1,1,2,WAIT
305,23832.0,125.25,125.28,125.177,125.211,125.26,9198.638461538461,1,0.030000000000001137,0.08955555555555558,0.45999999999999375,0.18522222222221907,0.09566666666666349,0.2747777777777747,1,1,3,BUY
306,17555.0,125.04,125.11,125.068,125.107,125.06,9198.638461538461,1,0.06999999999999318,0.08955555555555558,0.45999999999999375,0.18522222222221907,0.09566666666666349,0.2747777777777747,1,-1,1,WAIT
307,9367.0,125.52,125.56,125.387,125.431,125.57,9198.638461538461,0,0.04000000000000625,0.08955555555555558,0.45999999999999375,0.18522222222221907,0.09566666666666349,0.2747777777777747,1,1,2,WAIT
308,12125.0,125.89,125.91,125.706,125.753,125.88,9198.638461538461,0,0.01999999999999602,0.08955555555555558,0.45999999999999375,0.18522222222221907,0.09566666666666349,0.2747777777777747,1,1,2,WAIT
309,29837.0,126.31,126.33,126.139,126.175,126.33,9198.638461538461,1,0.01999999999999602,0.08955555555555558,0.45999999999999375,0.18522222222221907,0.09566666666666349,0.2747777777777747,1,1,3,BUY
310,49913.0,126.13,126.21,126.185,126.214,126.15,9198.638461538461,1,0.0799999999999983,0.08955555555555558,0.45999999999999375,0.18522222222221907,0.09566666666666349,0.2747777777777747,1,-1,1,WAIT
311,309850.0,125.69,125.7,125.64,125.674,125.73,9198.638461538461,1,0.010000000000005116,0.08955555555555558,0.45999999999999375,0.18522222222221907,0.09566666666666349,0.2747777777777747,1,1,3,BUY
312,45093.0,126.34,126.5,126.832,127.102,126.38,9198.638461538461,1,0.1599999999999966,0.08955555555555558,0.45999999999999375,0.18522222222221907,0.09566666666666349,0.2747777777777747,0,-1,0,WAIT
313,9054.0,125.93,126.03,125.834,126.026,125.98,9198.638461538461,0,0.09999999999999432,0.08955555555555558,0.45999999999999375,0.18522222222221907,0.09566666666666349,0.2747777777777747,0,0,0,WAIT
314,10874.0,125.74,125.84,125.66,125.835,125.71,9198.638461538461,0,0.10000000000000853,0.08955555555555558,0.45999999999999375,0.18522222222221907,0.09566666666666349,0.2747777777777747,0,0,0,WAIT
315,4846.0,126.51,126.66,126.098,126.292,126.63,9198.638461538461,0,0.14999999999999147,0.08955555555555558,0.45999999999999375,0.18522222222221907,0.09566666666666349,0.2747777777777747,0,1,1,WAIT
316,2433.0,126.27,126.42,126.292,126.467,126.4,9198.638461538461,-1,0.15000000000000568,0.08955555555555558,0.45999999999999375,0.18522222222221907,0.09566666666666349,0.2747777777777747,0,0,-1,WAIT
317,2144.0,125.73,125.97,126.039,126.173,125.78,9198.638461538461,-1,0.23999999999999488,0.08955555555555558,0.45999999999999375,0.18522222222221907,0.09566666666666349,0.2747777777777747,0,-1,-2,WAIT
318,3840.0,125.27,125.35,125.456,125.605,125.3,9198.638461538461,-1,0.0799999999999983,0.08955555555555558,0.45999999999999375,0.18522222222221907,0.09566666666666349,0.2747777777777747,1,-1,-1,WAIT
319,6060.0,125.57,125.69,125.52,125.622,125.64,9198.638461538461,0,0.12000000000000455,0.08955555555555558,0.45999999999999375,0.18522222222221907,0.09566666666666349,0.2747777777777747,0,1,1,WAIT
320,4413.0,125.4,125.47,125.422,125.521,125.39,9198.638461538461,-1,0.06999999999999318,0.08955555555555558,0.45999999999999375,0.18522222222221907,0.09566666666666349,0.2747777777777747,1,-1,-1,WAIT
321,2831.0,125.51,125.6,125.572,125.676,125.66,9198.638461538461,-1,0.0899999999999892,0.08955555555555558,0.45999999999999375,0.18522222222221907,0.09566666666666349,0.2747777777777747,1,0,0,WAIT
322,3533.0,125.89,125.96,125.711,125.81,125.9,9198.638461538461,-1,0.06999999999999318,0.08955555555555558,0.45999999999999375,0.18522222222221907,0.09566666666666349,0.2747777777777747,1,1,1,WAIT
323,3895.0,126.35,126.42,126.223,126.321,126.42,9198.638461538461,-1,0.07000000000000739,0.08955555555555558,0.45999999999999375,0.18522222222221907,0.09566666666666349,0.2747777777777747,1,1,1,WAIT
324,2729.0,126.22,126.31,126.367,126.463,126.28,9198.638461538461,-1,0.09000000000000341,0.08955555555555558,0.45999999999999375,0.18522222222221907,0.09566666666666349,0.2747777777777747,1,-1,-1,WAIT
325,5274.0,126.45,126.54,126.465,126.534,126.5,9198.638461538461,0,0.09000000000000341,0.08955555555555558,0.45999999999999375,0.18522222222221907,0.09566666666666349,0.2747777777777747,1,0,1,WAIT
326,2590.0,126.32,126.39,126.367,126.439,126.36,9198.638461538461,-1,0.07000000000000739,0.08955555555555558,0.45999999999999375,0.18522222222221907,0.09566666666666349,0.2747777777777747,1,-1,-1,WAIT
327,2077.0,126.22,126.3,126.344,126.409,126.28,9198.638461538461,-1,0.0799999999999983,0.08955555555555558,0.45999999999999375,0.18522222222221907,0.09566666666666349,0.2747777777777747,1,-1,-1,WAIT
328,2120.0,126.22,126.27,126.326,126.382,126.25,9198.638461538461,-1,0.04999999999999716,0.08955555555555558,0.45999999999999375,0.18522222222221907,0.09566666666666349,0.2747777777777747,1,-1,-1,WAIT
329,3054.0,126.21,126.28,126.218,126.283,126.24,9198.638461538461,-1,0.07000000000000739,0.08955555555555558,0.45999999999999375,0.18522222222221907,0.09566666666666349,0.2747777777777747,1,0,0,WAIT
330,2502.0,126.16,126.22,126.272,126.341,126.3,9198.638461538461,-1,0.060000000000002274,0.08955555555555558,0.45999999999999375,0.18522222222221907,0.09566666666666349,0.2747777777777747,1,0,0,WAIT
331,3056.0,125.62,125.68,125.77,125.844,125.68,9198.638461538461,-1,0.060000000000002274,0.08955555555555558,0.45999999999999375,0.18522222222221907,0.09566666666666349,0.2747777777777747,1,-1,-1,WAIT
332,2082.0,125.82,125.88,125.658,125.732,125.74,9198.638461538461,-1,0.060000000000002274,0.08955555555555558,0.45999999999999375,0.18522222222221907,0.09566666666666349,0.2747777777777747,1,1,1,WAIT
333,4311.0,125.79,125.85,125.74,125.81,125.79,9198.638461538461,-1,0.05999999999998806,0.08955555555555558,0.45999999999999375,0.18522222222221907,0.09566666666666349,0.2747777777777747,1,0,0,WAIT
334,3184.0,125.88,125.95,125.749,125.816,125.81,9198.638461538461,-1,0.07000000000000739,0.08955555555555558,0.45999999999999375,0.18522222222221907,0.09566666666666349,0.2747777777777747,1,0,0,WAIT
335,3989.0,125.7,125.8,125.821,125.889,125.77,9198.638461538461,-1,0.09999999999999432,0.08955555555555558,0.45999999999999375,0.18522222222221907,0.09566666666666349,0.2747777777777747,0,-1,-2,WAIT
336,1318.0,125.72,125.76,125.673,125.741,125.72,9198.638461538461,-1,0.04000000000000625,0.08955555555555558,0.45999999999999375,0.18522222222221907,0.09566666666666349,0.2747777777777747,1,0,0,WAIT
337,2308.0,125.82,125.88,125.614,125.674,125.82,9198.638461538461,-1,0.060000000000002274,0.08955555555555558,0.45999999999999375,0.18522222222221907,0.09566666666666349,0.2747777777777747,1,1,1,WAIT
338,2001.0,125.85,125.91,125.806,125.865,125.9,9198.638461538461,-1,0.060000000000002274,0.08955555555555558,0.45999999999999375,0.18522222222221907,0.09566666666666349,0.2747777777777747,1,1,1,WAIT
339,3088.0,125.53,125.6,125.676,125.735,125.59,9198.638461538461,-1,0.06999999999999318,0.08955555555555558,0.45999999999999375,0.18522222222221907,0.09566666666666349,0.2747777777777747,1,-1,-1,WAIT
340,3255.0,125.36,125.47,125.412,125.481,125.41,9198.638461538461,-1,0.10999999999999943,0.08955555555555558,0.45999999999999375,0.18522222222221907,0.09566666666666349,0.2747777777777747,0,-1,-2,WAIT
341,3911.0,124.72,124.77,125.139,125.206,124.73,9198.638461538461,-1,0.04999999999999716,0.08955555555555558,0.45999999999999375,0.18522222222221907,0.09566666666666349,0.2747777777777747,1,-1,-1,WAIT
342,3134.0,124.75,124.84,124.658,124.73,124.78,9198.638461538461,-1,0.09000000000000341,0.08955555555555558,0.45999999999999375,0.18522222222221907,0.09566666666666349,0.2747777777777747,1,1,1,WAIT
343,2161.0,124.6,124.65,124.698,124.769,124.59,9198.638461538461,-1,0.05000000000001137,0.08955555555555558,0.45999999999999375,0.18522222222221907,0.09566666666666349,0.2747777777777747,1,-1,-1,WAIT
344,3746.0,124.59,124.63,124.565,124.623,124.62,9198.638461538461,-1,0.03999999999999204,0.08955555555555558,0.45999999999999375,0.18522222222221907,0.09566666666666349,0.2747777777777747,1,0,0,WAIT
345,3630.0,124.66,124.68,124.594,124.645,124.66,9198.638461538461,-1,0.020000000000010232,0.08955555555555558,0.45999999999999375,0.18522222222221907,0.09566666666666349,0.2747777777777747,1,1,1,WAIT
346,3146.0,125.11,125.14,124.876,124.928,125.1,9198.638461538461,-1,0.030000000000001137,0.08955555555555558,0.45999999999999375,0.18522222222221907,0.09566666666666349,0.2747777777777747,1,1,1,WAIT
347,5141.0,125.25,125.28,125.087,125.134,125.28,9198.638461538461,0,0.030000000000001137,0.08955555555555558,0.45999999999999375,0.18522222222221907,0.09566666666666349,0.2747777777777747,1,1,2,WAIT
348,7402.0,125.29,125.32,125.377,125.413,125.33,9198.638461538461,0,0.029999999999986926,0.08955555555555558,0.45999999999999375,0.18522222222221907,0.09566666666666349,0.2747777777777747,1,-1,0,WAIT
349,14768.0,125.57,125.61,125.469,125.5,125.59,9198.638461538461,1,0.04000000000000625,0.08955555555555558,0.45999999999999375,0.18522222222221907,0.09566666666666349,0.2747777777777747,1,1,3,BUY
350,53379.0,125.52,125.54,125.579,125.605,125.52,9198.638461538461,1,0.020000000000010232,0.08955555555555558,0.45999999999999375,0.18522222222221907,0.09566666666666349,0.2747777777777747,1,-1,1,WAIT
351,43716.0,126.05,126.21,125.549,125.775,126.15,9198.638461538461,1,0.1599999999999966,0.08955555555555558,0.45999999999999375,0.18522222222221907,0.09566666666666349,0.2747777777777747,0,1,2,WAIT
352,6825.0,126.15,126.36,126.202,126.383,126.38,9198.638461538461,0,0.20999999999999375,0.08955555555555558,0.45999999999999375,0.18522222222221907,0.09566666666666349,0.2747777777777747,0,0,0,WAIT
353,2720.0,126.4,126.51,126.155,126.333,126.42,9198.638461538461,-1,0.10999999999999943,0.08955555555555558,0.45999999999999375,0.18522222222221907,0.09566666666666349,0.2747777777777747,0,1,0,WAIT
354,3348.0,126.72,126.86,126.612,126.747,126.87,9198.638461538461,-1,0.14000000000000057,0.08955555555555558,0.45999999999999375,0.18522222222221907,0.09566666666666349,0.2747777777777747,0,1,0,WAIT
355,4536.0,127.21,127.32,127.022,127.146,127.26,9198.638461538461,-1,0.10999999999999943,0.08955555555555558,0.45999999999999375,0.18522222222221907,0.09566666666666349,0.2747777777777747,0,1,0,WAIT
356,5597.0,127.23,127.32,127.316,127.426,127.28,9198.638461538461,0,0.0899999999999892,0.08955555555555558,0.45999999999999375,0.18522222222221907,0.09566666666666349,0.2747777777777747,1,-1,0,WAIT
357,5789.0,127.78,127.88,127.568,127.673,127.96,9198.638461538461,0,0.09999999999999432,0.08955555555555558,0.45999999999999375,0.18522222222221907,0.09566666666666349,0.2747777777777747,0,1,1,WAIT
358,2470.0,127.15,127.34,127.27,127.375,127.23,9198.638461538461,-1,0.18999999999999773,0.08955555555555558,0.45999999999999375,0.18522222222221907,0.09566666666666349,0.2747777777777747,0,-1,-2,WAIT
359,2909.0,127.62,127.71,127.408,127.528,127.66,9198.638461538461,-1,0.0899999999999892,0.08955555555555558,0.45999999999999375,0.18522222222221907,0.09566666666666349,0.2747777777777747,1,1,1,WAIT
360,2835.0,127.13,127.21,127.217,127.347,127.18,9198.638461538461,-1,0.0799999999999983,0.08955555555555558,0.45999999999999375,0.18522222222221907,0.09566666666666349,0.2747777777777747,1,-1,-1,WAIT
361,2193.0,127.07,127.18,127.089,127.234,127.07,9198.638461538461,-1,0.11000000000001364,0.08955555555555558,0.45999999999999375,0.18522222222221907,0.09566666666666349,0.2747777777777747,0,-1,-2,WAIT
362,2605.0,126.72,126.82,127.117,127.252,126.88,9198.638461538461,-1,0.09999999999999432,0.08955555555555558,0.45999999999999375,0.18522222222221907,0.09566666666666349,0.2747777777777747,0,-1,-2,WAIT
363,2324.0,126.86,126.95,126.835,126.941,126.87,9198.638461538461,-1,0.09000000000000341,0.08955555555555558,0.45999999999999375,0.18522222222221907,0.09566666666666349,0.2747777777777747,1,0,0,WAIT
364,2172.0,126.9,126.96,126.929,127.013,126.87,9198.638461538461,-1,0.05999999999998806,0.08955555555555558,0.45999999999999375,0.18522222222221907,0.09566666666666349,0.2747777777777747,1,-1,-1,WAIT
365,3828.0,127.0,127.08,126.967,127.051,127.04,9198.638461538461,-1,0.0799999999999983,0.08955555555555558,0.45999999999999375,0.18522222222221907,0.09566666666666349,0.2747777777777747,1,0,0,WAIT
366,2346.0,126.81,126.88,126.895,126.973,126.85,9198.638461538461,-1,0.06999999999999318,0.08955555555555558,0.45999999999999375,0.18522222222221907,0.09566666666666349,0.2747777777777747,1,-1,-1,WAIT
367,2554.0,126.35,126.45,126.695,126.77,126.47,9198.638461538461,-1,0.10000000000000853,0.08955555555555558,0.45999999999999375,0.18522222222221907,0.09566666666666349,0.2747777777777747,0,-1,-2,WAIT
368,2400.0,126.18,126.26,126.318,126.399,126.2,9198.638461538461,-1,0.0799999999999983,0.08955555555555558,0.45999999999999375,0.18522222222221907,0.09566666666666349,0.2747777777777747,1,-1,-1,WAIT
369,2202.0,125.89,125.99,126.057,126.135,125.92,9198.638461538461,-1,0.09999999999999432,0.08955555555555558,0.45999999999999375,0.18522222222221907,0.09566666666666349,0.2747777777777747,0,-1,-2,WAIT
370,3068.0,126.25,126.38,126.095,126.176,126.28,9198.638461538461,-1,0.12999999999999545,0.08955555555555558,0.45999999999999375,0.18522222222221907,0.09566666666666349,0.2747777777777747,0,1,0,WAIT
371,1207.0,126.62,126.71,126.442,126.518,126.68,9198.638461538461,-1,0.0899999999999892,0.08955555555555558,0.45999999999999375,0.18522222222221907,0.09566666666666349,0.2747777777777747,1,1,1,WAIT
372,1287.0,126.85,126.92,126.765,126.845,126.92,9198.638461538461,-1,0.07000000000000739,0.08955555555555558,0.45999999999999375,0.18522222222221907,0.09566666666666349,0.2747777777777747,1,1,1,WAIT
373,1306.0,127.17,127.23,126.941,127.021,127.15,9198.638461538461,-1,0.060000000000002274,0.08955555555555558,0.45999999999999375,0.18522222222221907,0.09566666666666349,0.2747777777777747,1,1,1,WAIT
374,1914.0,127.47,127.55,127.338,127.42,127.51,9198.638461538461,-1,0.0799999999999983,0.08955555555555558,0.45999999999999375,0.18522222222221907,0.09566666666666349,0.2747777777777747,1,1,1,WAIT
375,2741.0,127.66,127.79,127.586,127.67,127.71,9198.638461538461,-1,0.13000000000000966,0.08955555555555558,0.45999999999999375,0.18522222222221907,0.09566666666666349,0.2747777777777747,0,1,0,WAIT
376,2409.0,127.52,127.59,127.685,127.757,127.56,9198.638461538461,-1,0.07000000000000739,0.08955555555555558,0.45999999999999375,0.18522222222221907,0.09566666666666349,0.2747777777777747,1,-1,-1,WAIT
377,4835.0,127.49,127.56,127.645,127.725,127.51,9198.638461538461,0,0.07000000000000739,0.08955555555555558,0.45999999999999375,0.18522222222221907,0.09566666666666349,0.2747777777777747,1,-1,0,WAIT
378,1475.0,127.46,127.55,127.553,127.637,127.6,9198.638461538461,-1,0.09000000000000341,0.08955555555555558,0.45999999999999375,0.18522222222221907,0.09566666666666349,0.2747777777777747,1,0,0,WAIT
379,1600.0,127.46,127.56,127.507,127.584,127.5,9198.638461538461,-1,0.10000000000000853,0.08955555555555558,0.45999999999999375,0.18522222222221907,0.09566666666666349,0.2747777777777747,0,-1,-2,WAIT
380,2383.0,127.14,127.23,127.256,127.337,127.14,9198.638461538461,-1,0.09000000000000341,0.08955555555555558,0.45999999999999375,0.18522222222221907,0.09566666666666349,0.2747777777777747,1,-1,-1,WAIT
381,2119.0,127.11,127.15,127.115,127.188,127.12,9198.638461538461,-1,0.04000000000000625,0.08955555555555558,0.45999999999999375,0.18522222222221907,0.09566666666666349,0.2747777777777747,1,0,0,WAIT
382,1819.0,127.16,127.22,127.137,127.204,127.19,9198.638461538461,-1,0.060000000000002274,0.08955555555555558,0.45999999999999375,0.18522222222221907,0.09566666666666349,0.2747777777777747,1,0,0,WAIT
383,3353.0,126.9,126.98,127.045,127.102,126.92,9198.638461538461,-1,0.0799999999999983,0.08955555555555558,0.45999999999999375,0.18522222222221907,0.09566666666666349,0.2747777777777747,1,-1,-1,WAIT
384,3200.0,126.75,126.83,126.766,126.828,126.79,9198.638461538461,-1,0.0799999999999983,0.08955555555555558,0.45999999999999375,0.18522222222221907,0.09566666666666349,0.2747777777777747,1,0,0,WAIT
385,2316.0,126.59,126.64,126.656,126.719,126.61,9198.638461538461,-1,0.04999999999999716,0.08955555555555558,0.45999999999999375,0.18522222222221907,0.09566666666666349,0.2747777777777747,1,-1,-1,WAIT
386,2968.0,126.69,126.72,126.612,126.666,126.71,9198.638461538461,-1,0.030000000000001137,0.08955555555555558,0.45999999999999375,0.18522222222221907,0.09566666666666349,0.2747777777777747,1,1,1,WAIT
387,5419.0,126.97,127.02,126.817,126.856,126.96,9198.638461538461,0,0.04999999999999716,0.08955555555555558,0.45999999999999375,0.18522222222221907,0.09566666666666349,0.2747777777777747,1,1,2,WAIT
388,12982.0,126.94,126.97,126.999,127.033,126.96,9198.638461538461,0,0.030000000000001137,0.08955555555555558,0.45999999999999375,0.18522222222221907,0.09566666666666349,0.2747777777777747,1,-1,0,WAIT
389,46714.0,126.49,126.5,126.59,126.617,126.49,9198.638461538461,1,0.010000000000005116,0.08955555555555558,0.45999999999999375,0.18522222222221907,0.09566666666666349,0.2747777777777747,1,-1,1,WAIT
390,63707.0,128.03,128.19,128.654,128.859,128.06,9198.638461538461,1,0.1599999999999966,0.08955555555555558,0.45999999999999375,0.18522222222221907,0.09566666666666349,0.2747777777777747,0,-1,0,WAIT
391,10245.0,127.4,127.53,127.79,127.95,127.46,9198.638461538461,0,0.12999999999999545,0.08955555555555558,0.45999999999999375,0.18522222222221907,0.09566666666666349,0.2747777777777747,0,-1,-1,WAIT
392,6379.0,127.46,127.59,127.499,127.639,127.58,9198.638461538461,0,0.13000000000000966,0.08955555555555558,0.45999999999999375,0.18522222222221907,0.09566666666666349,0.2747777777777747,0,0,0,WAIT
393,1420.0,127.81,127.9,127.567,127.714,127.85,9198.638461538461,-1,0.09000000000000341,0.08955555555555558,0.45999999999999375,0.18522222222221907,0.09566666666666349,0.2747777777777747,1,1,1,WAIT
394,3405.0,127.83,127.95,127.814,127.936,127.82,9198.638461538461,-1,0.12000000000000455,0.08955555555555558,0.45999999999999375,0.18522222222221907,0.09566666666666349,0.2747777777777747,0,0,-1,WAIT
395,2204.0,128.08,128.21,127.952,128.086,128.08,9198.638461538461,-1,0.12999999999999545,0.08955555555555558,0.45999999999999375,0.18522222222221907,0.09566666666666349,0.2747777777777747,0,0,-1,WAIT
396,5592.0,129.09,129.19,128.66,128.811,129.04,9198.638461538461,0,0.09999999999999432,0.08955555555555558,0.45999999999999375,0.18522222222221907,0.09566666666666349,0.2747777777777747,0,1,1,WAIT
397,5563.0,129.37,129.44,129.278,129.37,129.4,9198.638461538461,0,0.06999999999999318,0.08955555555555558,0.45999999999999375,0.18522222222221907,0.09566666666666349,0.2747777777777747,1,1,2,WAIT
398,3059.0,129.3,129.41,129.453,129.543,129.31,9198.638461538461,-1,0.10999999999998522,0.08955555555555558,0.45999999999999375,0.18522222222221907,0.09566666666666349,0.2747777777777747,0,-1,-2,WAIT
399,4534.0,129.2,129.29,129.338,129.423,129.29,9198.638461538461,-1,0.09000000000000341,0.08955555555555558,0.45999999999999375,0.18522222222221907,0.09566666666666349,0.2747777777777747,1,-1,-1,WAIT
400,2444.0,128.86,129.01,129.114,129.229,129.13,9198.638461538461,-1,0.14999999999997726,0.08955555555555558,0.45999999999999375,0.18522222222221907,0.09566666666666349,0.2747777777777747,0,0,-1,WAIT
401,2135.0,128.76,128.83,128.725,128.86,128.83,9198.638461538461,-1,0.0700000000000216,0.08955555555555558,0.45999999999999375,0.18522222222221907,0.09566666666666349,0.2747777777777747,1,0,0,WAIT
402,3446.0,128.43,128.51,128.56,128.661,128.48,9198.638461538461,-1,0.07999999999998408,0.08955555555555558,0.45999999999999375,0.18522222222221907,0.09566666666666349,0.2747777777777747,1,-1,-1,WAIT
403,1713.0,128.82,128.91,128.54,128.62,128.87,9198.638461538461,-1,0.09000000000000341,0.08955555555555558,0.45999999999999375,0.18522222222221907,0.09566666666666349,0.2747777777777747,1,1,1,WAIT
404,2111.0,128.79,128.86,128.725,128.806,128.71,9198.638461538461,-1,0.0700000000000216,0.08955555555555558,0.45999999999999375,0.18522222222221907,0.09566666666666349,0.2747777777777747,1,-1,-1,WAIT
405,1425.0,128.9,128.97,128.832,128.908,129.0,9198.638461538461,-1,0.06999999999999318,0.08955555555555558,0.45999999999999375,0.18522222222221907,0.09566666666666349,0.2747777777777747,1,1,1,WAIT
406,1846.0,129.03,129.11,129.054,129.127,129.08,9198.638461538461,-1,0.0800000000000125,0.08955555555555558,0.45999999999999375,0.18522222222221907,0.09566666666666349,0.2747777777777747,1,0,0,WAIT
407,1410.0,128.97,129.07,128.973,129.06,128.97,9198.638461538461,-1,0.09999999999999432,0.08955555555555558,0.45999999999999375,0.18522222222221907,0.09566666666666349,0.2747777777777747,0,-1,-2,WAIT
408,1253.0,129.41,129.51,129.261,129.339,129.44,9198.638461538461,-1,0.09999999999999432,0.08955555555555558,0.45999999999999375,0.18522222222221907,0.09566666666666349,0.2747777777777747,0,1,0,WAIT
409,2560.0,129.35,129.44,129.359,129.437,129.32,9198.638461538461,-1,0.09000000000000341,0.08955555555555558,0.45999999999999375,0.18522222222221907,0.09566666666666349,0.2747777777777747,1,-1,-1,WAIT
410,2323.0,129.55,129.6,129.458,129.525,129.57,9198.638461538461,-1,0.04999999999998295,0.08955555555555558,0.45999999999999375,0.18522222222221907,0.09566666666666349,0.2747777777777747,1,1,1,WAIT
411,2542.0,129.64,129.7,129.548,129.617,129.65,9198.638461538461,-1,0.060000000000002274,0.08955555555555558,0.45999999999999375,0.18522222222221907,0.09566666666666349,0.2747777777777747,1,1,1,WAIT
412,2352.0,129.86,129.9,129.692,129.755,129.77,9198.638461538461,-1,0.03999999999999204,0.08955555555555558,0.45999999999999375,0.18522222222221907,0.09566666666666349,0.2747777777777747,1,1,1,WAIT
413,1909.0,129.42,129.48,129.607,129.683,129.61,9198.638461538461,-1,0.060000000000002274,0.08955555555555558,0.45999999999999375,0.18522222222221907,0.09566666666666349,0.2747777777777747,1,0,0,WAIT
414,1202.0,129.37,129.44,129.334,129.409,129.36,9198.638461538461,-1,0.06999999999999318,0.08955555555555558,0.45999999999999375,0.18522222222221907,0.09566666666666349,0.2747777777777747,1,0,0,WAIT
415,1025.0,129.53,129.62,129.42,129.496,129.58,9198.638461538461,-1,0.09000000000000341,0.08955555555555558,0.45999999999999375,0.18522222222221907,0.09566666666666349,0.2747777777777747,1,1,1,WAIT
416,2122.0,129.85,129.9,129.789,129.859,129.87,9198.638461538461,-1,0.05000000000001137,0.08955555555555558,0.45999999999999375,0.18522222222221907,0.09566666666666349,0.2747777777777747,1,1,1,WAIT
417,7899.0,130.09,130.18,130.127,130.184,130.35,9198.638461538461,0,0.09000000000000341,0.08955555555555558,0.45999999999999375,0.18522222222221907,0.09566666666666349,0.2747777777777747,1,1,2,WAIT
418,2642.0,130.18,130.24,130.057,130.134,130.19,9198.638461538461,-1,0.060000000000002274,0.08955555555555558,0.45999999999999375,0.18522222222221907,0.09566666666666349,0.2747777777777747,1,1,1,WAIT
419,900.0,129.79,129.86,129.997,130.078,129.85,9198.638461538461,-1,0.0700000000000216,0.08955555555555558,0.45999999999999375,0.18522222222221907,0.09566666666666349,0.2747777777777747,1,-1,-1,WAIT
420,1893.0,129.98,130.04,129.91,129.985,130.04,9198.638461538461,-1,0.060000000000002274,0.08955555555555558,0.45999999999999375,0.18522222222221907,0.09566666666666349,0.2747777777777747,1,1,1,WAIT
421,2637.0,130.08,130.15,130.07,130.13,130.15,9198.638461538461,-1,0.06999999999999318,0.08955555555555558,0.45999999999999375,0.18522222222221907,0.09566666666666349,0.2747777777777747,1,1,1,WAIT
422,2657.0,130.04,130.09,129.958,130.02,129.99,9198.638461538461,-1,0.05000000000001137,0.08955555555555558,0.45999999999999375,0.18522222222221907,0.09566666666666349,0.2747777777777747,1,0,0,WAIT
423,3771.0,129.87,129.9,130.0,130.055,129.87,9198.638461538461,-1,0.030000000000001137,0.08955555555555558,0.45999999999999375,0.18522222222221907,0.09566666666666349,0.2747777777777747,1,-1,-1,WAIT
424,6462.0,129.76,129.82,129.898,129.95,129.76,9198.638461538461,0,0.060000000000002274,0.08955555555555558,0.45999999999999375,0.18522222222221907,0.09566666666666349,0.2747777777777747,1,-1,0,WAIT
425,4034.0,129.56,129.61,129.752,129.796,129.6,9198.638461538461,-1,0.05000000000001137,0.08955555555555558,0.45999999999999375,0.18522222222221907,0.09566666666666349,0.2747777777777747,1,-1,-1,WAIT
426,7442.0,129.8,129.83,129.63,129.665,129.82,9198.638461538461,0,0.030000000000001137,0.08955555555555558,0.45999999999999375,0.18522222222221907,0.09566666666666349,0.2747777777777747,1,1,2,WAIT
427,11384.0,129.76,129.8,129.732,129.762,129.79,9198.638461538461,0,0.040000000000020464,0.08955555555555558,0.45999999999999375,0.18522222222221907,0.09566666666666349,0.2747777777777747,1,1,2,WAIT
428,106736.0,129.9,129.92,129.539,129.563,129.98,9198.638461538461,1,0.01999999999998181,0.08955555555555558,0.45999999999999375,0.18522222222221907,0.09566666666666349,0.2747777777777747,1,1,3,BUY
429,46485.0,128.25,128.44,129.144,129.4,128.32,9198.638461538461,1,0.18999999999999773,0.08955555555555558,0.45999999999999375,0.18522222222221907,0.09566666666666349,0.2747777777777747,0,-1,0,WAIT
430,4355.0,127.96,128.15,128.069,128.263,128.06,9198.638461538461,-1,0.19000000000001194,0.08955555555555558,0.45999999999999375,0.18522222222221907,0.09566666666666349,0.2747777777777747,0,-1,-2,WAIT
431,3681.0,127.54,127.74,127.719,127.893,127.72,9198.638461538461,-1,0.19999999999998863,0.08955555555555558,0.45999999999999375,0.18522222222221907,0.09566666666666349,0.2747777777777747,0,0,-1,WAIT
432,3315.0,126.9,127.25,127.26,127.429,127.12,9198.638461538461,-1,0.3499999999999943,0.08955555555555558,0.45999999999999375,0.18522222222221907,0.09566666666666349,0.2747777777777747,-1,-1,-3,SELL
433,1620.0,126.95,127.11,127.011,127.169,127.29,9198.638461538461,-1,0.1599999999999966,0.08955555555555558,0.45999999999999375,0.18522222222221907,0.09566666666666349,0.2747777777777747,0,1,0,WAIT
434,1010.0,126.45,126.55,126.626,126.777,126.5,9198.638461538461,-1,0.09999999999999432,0.08955555555555558,0.45999999999999375,0.18522222222221907,0.09566666666666349,0.2747777777777747,0,-1,-2,WAIT
435,3151.0,126.15,126.27,126.247,126.384,126.25,9198.638461538461,-1,0.11999999999999034,0.08955555555555558,0.45999999999999375,0.18522222222221907,0.09566666666666349,0.2747777777777747,0,0,-1,WAIT
436,1560.0,125.59,125.73,125.975,126.095,125.83,9198.638461538461,-1,0.14000000000000057,0.08955555555555558,0.45999999999999375,0.18522222222221907,0.09566666666666349,0.2747777777777747,0,-1,-2,WAIT
437,1541.0,125.27,125.33,125.516,125.627,125.4,9198.638461538461,-1,0.060000000000002274,0.08955555555555558,0.45999999999999375,0.18522222222221907,0.09566666666666349,0.2747777777777747,1,-1,-1,WAIT
438,2718.0,125.27,125.44,125.346,125.473,125.37,9198.638461538461,-1,0.1700000000000017,0.08955555555555558,0.45999999999999375,0.18522222222221907,0.09566666666666349,0.2747777777777747,0,0,-1,WAIT
439,2872.0,125.82,126.0,125.566,125.72,125.94,9198.638461538461,-1,0.18000000000000682,0.08955555555555558,0.45999999999999375,0.18522222222221907,0.09566666666666349,0.2747777777777747,0,1,0,WAIT
440,1411.0,126.04,126.23,126.011,126.179,126.19,9198.638461538461,-1,0.18999999999999773,0.08955555555555558,0.45999999999999375,0.18522222222221907,0.09566666666666349,0.2747777777777747,0,1,0,WAIT
441,1810.0,125.84,125.91,126.066,126.192,125.88,9198.638461538461,-1,0.06999999999999318,0.08955555555555558,0.45999999999999375,0.18522222222221907,0.09566666666666349,0.2747777777777747,1,-1,-1,WAIT
442,3127.0,125.77,125.82,125.854,125.956,125.81,9198.638461538461,-1,0.04999999999999716,0.08955555555555558,0.45999999999999375,0.18522222222221907,0.09566666666666349,0.2747777777777747,1,-1,-1,WAIT
443,3319.0,125.62,125.71,125.488,125.592,125.69,9198.638461538461,-1,0.0899999999999892,0.08955555555555558,0.45999999999999375,0.18522222222221907,0.09566666666666349,0.2747777777777747,1,1,1,WAIT
444,2435.0,125.45,125.57,125.41,125.513,125.49,9198.638461538461,-1,0.11999999999999034,0.08955555555555558,0.45999999999999375,0.18522222222221907,0.09566666666666349,0.2747777777777747,0,0,-1,WAIT
445,4677.0,125.19,125.27,125.245,125.351,125.18,9198.638461538461,0,0.0799999999999983,0.08955555555555558,0.45999999999999375,0.18522222222221907,0.09566666666666349,0.2747777777777747,1,-1,0,WAIT
446,7078.0,125.22,125.32,125.143,125.245,125.22,9198.638461538461,0,0.09999999999999432,0.08955555555555558,0.45999999999999375,0.18522222222221907,0.09566666666666349,0.2747777777777747,0,0,0,WAIT
447,3140.0,125.29,125.37,125.249,125.348,125.29,9198.638461538461,-1,0.0799999999999983,0.08955555555555558,0.45999999999999375,0.18522222222221907,0.09566666666666349,0.2747777777777747,1,0,0,WAIT
448,2298.0,125.03,125.18,125.105,125.21,125.03,9198.638461538461,-1,0.15000000000000568,0.08955555555555558,0.45999999999999375,0.18522222222221907,0.09566666666666349,0.2747777777777747,0,-1,-2,WAIT
449,4574.0,124.48,124.56,124.788,124.881,124.53,9198.638461538461,-1,0.0799999999999983,0.08955555555555558,0.45999999999999375,0.18522222222221907,0.09566666666666349,0.2747777777777747,1,-1,-1,WAIT
450,3465.0,124.31,124.48,124.349,124.445,124.31,9198.638461538461,-1,0.1700000000000017,0.08955555555555558,0.45999999999999375,0.18522222222221907,0.09566666666666349,0.2747777777777747,0,-1,-2,WAIT
451,6740.0,124.66,124.75,124.47,124.565,124.72,9198.638461538461,0,0.09000000000000341,0.08955555555555558,0.45999999999999375,0.18522222222221907,0.09566666666666349,0.2747777777777747,1,1,2,WAIT
452,2413.0,124.31,124.39,124.558,124.654,124.45,9198.638461538461,-1,0.0799999999999983,0.08955555555555558,0.45999999999999375,0.18522222222221907,0.09566666666666349,0.2747777777777747,1,-1,-1,WAIT
453,5016.0,124.37,124.51,124.289,124.39,124.4,9198.638461538461,0,0.14000000000000057,0.08955555555555558,0.45999999999999375,0.18522222222221907,0.09566666666666349,0.2747777777777747,0,1,1,WAIT
454,3790.0,123.83,124.02,124.024,124.111,123.82,9198.638461538461,-1,0.18999999999999773,0.08955555555555558,0.45999999999999375,0.18522222222221907,0.09566666666666349,0.2747777777777747,0,-1,-2,WAIT
455,3697.0,123.75,123.84,123.746,123.845,123.82,9198.638461538461,-1,0.09000000000000341,0.08955555555555558,0.45999999999999375,0.18522222222221907,0.09566666666666349,0.2747777777777747,1,0,0,WAIT
456,2840.0,123.33,123.41,123.644,123.742,123.4,9198.638461538461,-1,0.0799999999999983,0.08955555555555558,0.45999999999999375,0.18522222222221907,0.09566666666666349,0.2747777777777747,1,-1,-1,WAIT
457,3790.0,123.61,123.66,123.522,123.619,123.64,9198.638461538461,-1,0.04999999999999716,0.08955555555555558,0.45999999999999375,0.18522222222221907,0.09566666666666349,0.2747777777777747,1,1,1,WAIT
458,3690.0,124.21,124.33,123.834,123.93,124.24,9198.638461538461,-1,0.12000000000000455,0.08955555555555558,0.45999999999999375,0.18522222222221907,0.09566666666666349,0.2747777777777747,0,1,0,WAIT
459,4719.0,124.83,124.95,124.65,124.748,124.85,9198.638461538461,0,0.12000000000000455,0.08955555555555558,0.45999999999999375,0.18522222222221907,0.09566666666666349,0.2747777777777747,0,1,1,WAIT
460,3792.0,125.66,125.73,125.186,125.285,125.71,9198.638461538461,-1,0.07000000000000739,0.08955555555555558,0.45999999999999375,0.18522222222221907,0.09566666666666349,0.2747777777777747,1,1,1,WAIT
461,2084.0,125.83,125.94,125.569,125.67,125.93,9198.638461538461,-1,0.10999999999999943,0.08955555555555558,0.45999999999999375,0.18522222222221907,0.09566666666666349,0.2747777777777747,0,1,0,WAIT
462,3270.0,126.2,126.33,125.948,126.043,126.32,9198.638461538461,-1,0.12999999999999545,0.08955555555555558,0.45999999999999375,0.18522222222221907,0.09566666666666349,0.2747777777777747,0,1,0,WAIT
463,4850.0,126.33,126.45,126.185,126.277,126.36,9198.638461538461,0,0.12000000000000455,0.08955555555555558,0.45999999999999375,0.18522222222221907,0.09566666666666349,0.2747777777777747,0,1,1,WAIT
464,7638.0,127.07,127.11,126.776,126.853,127.07,9198.638461538461,0,0.04000000000000625,0.08955555555555558,0.45999999999999375,0.18522222222221907,0.09566666666666349,0.2747777777777747,1,1,2,WAIT
465,4694.0,126.23,126.3,126.511,126.587,126.25,9198.638461538461,0,0.06999999999999318,0.08955555555555558,0.45999999999999375,0.18522222222221907,0.09566666666666349,0.2747777777777747,1,-1,0,WAIT
466,13143.0,126.47,126.5,126.116,126.172,126.46,9198.638461538461,0,0.030000000000001137,0.08955555555555558,0.45999999999999375,0.18522222222221907,0.09566666666666349,0.2747777777777747,1,1,2,WAIT
467,71262.0,126.3,126.35,126.339,126.368,126.31,9198.638461538461,1,0.04999999999999716,0.08955555555555558,0.45999999999999375,0.18522222222221907,0.09566666666666349,0.2747777777777747,1,-1,1,WAIT
468,38310.0,127.7,127.85,128.077,128.335,128.11,9198.638461538461,1,0.14999999999999147,0.08955555555555558,0.45999999999999375,0.18522222222221907,0.09566666666666349,0.2747777777777747,0,0,1,WAIT
469,6867.0,128.26,128.37,127.947,128.17,128.37,9198.638461538461,0,0.11000000000001364,0.08955555555555558,0.45999999999999375,0.18522222222221907,0.09566666666666349,0.2747777777777747,0,1,1,WAIT
470,1306.0,128.25,128.38,128.244,128.486,128.41,9198.638461538461,-1,0.12999999999999545,0.08955555555555558,0.45999999999999375,0.18522222222221907,0.09566666666666349,0.2747777777777747,0,0,-1,WAIT
471,3053.0,128.75,129.0,128.653,128.908,128.98,9198.638461538461,-1,0.25,0.08955555555555558,0.45999999999999375,0.18522222222221907,0.09566666666666349,0.2747777777777747,0,1,0,WAIT
472,4914.0,129.57,129.73,129.112,129.28,129.63,9198.638461538461,0,0.1599999999999966,0.08955555555555558,0.45999999999999375,0.18522222222221907,0.09566666666666349,0.2747777777777747,0,1,1,WAIT
473,4146.0,129.75,129.86,129.624,129.777,129.71,9198.638461538461,-1,0.11000000000001364,0.08955555555555558,0.45999999999999375,0.18522222222221907,0.09566666666666349,0.2747777777777747,0,0,-1,WAIT
474,3678.0,129.93,130.03,130.043,130.15,130.14,9198.638461538461,-1,0.09999999999999432,0.08955555555555558,0.45999999999999375,0.18522222222221907,0.09566666666666349,0.2747777777777747,0,0,-1,WAIT
475,3109.0,129.65,129.77,129.69,129.799,129.57,9198.638461538461,-1,0.12000000000000455,0.08955555555555558,0.45999999999999375,0.18522222222221907,0.09566666666666349,0.2747777777777747,0,-1,-2,WAIT
476,1307.0,129.52,129.65,129.603,129.73,129.68,9198.638461538461,-1,0.12999999999999545,0.08955555555555558,0.45999999999999375,0.18522222222221907,0.09566666666666349,0.2747777777777747,0,0,-1,WAIT
477,2291.0,129.44,129.59,129.497,129.605,129.45,9198.638461538461,-1,0.15000000000000568,0.08955555555555558,0.45999999999999375,0.18522222222221907,0.09566666666666349,0.2747777777777747,0,-1,-2,WAIT
478,1750.0,129.53,129.66,129.631,129.747,129.6,9198.638461538461,-1,0.12999999999999545,0.08955555555555558,0.45999999999999375,0.18522222222221907,0.09566666666666349,0.2747777777777747,0,-1,-2,WAIT
479,3406.0,129.4,129.47,129.657,129.752,129.59,9198.638461538461,-1,0.06999999999999318,0.08955555555555558,0.45999999999999375,0.18522222222221907,0.09566666666666349,0.2747777777777747,1,-1,-1,WAIT
480,1445.0,129.61,129.78,129.466,129.574,129.54,9198.638461538461,-1,0.1699999999999875,0.08955555555555558,0.45999999999999375,0.18522222222221907,0.09566666666666349,0.2747777777777747,0,0,-1,WAIT
481,1209.0,129.54,129.64,129.609,129.699,129.69,9198.638461538461,-1,0.09999999999999432,0.08955555555555558,0.45999999999999375,0.18522222222221907,0.09566666666666349,0.2747777777777747,0,0,-1,WAIT
482,800.0,129.71,129.8,129.714,129.806,129.8,9198.638461538461,-1,0.09000000000000341,0.08955555555555558,0.45999999999999375,0.18522222222221907,0.09566666666666349,0.2747777777777747,1,0,0,WAIT
483,1411.0,129.62,129.7,129.67,129.782,129.68,9198.638461538461,-1,0.07999999999998408,0.08955555555555558,0.45999999999999375,0.18522222222221907,0.09566666666666349,0.2747777777777747,1,0,0,WAIT
484,1789.0,129.9,129.95,129.707,129.794,129.99,9198.638461538461,-1,0.04999999999998295,0.08955555555555558,0.45999999999999375,0.18522222222221907,0.09566666666666349,0.2747777777777747,1,1,1,WAIT
485,1735.0,129.88,129.92,129.913,129.992,129.89,9198.638461538461,-1,0.03999999999999204,0.08955555555555558,0.45999999999999375,0.18522222222221907,0.09566666666666349,0.2747777777777747,1,-1,-1,WAIT
486,1055.0,130.0,130.07,129.907,129.985,130.02,9198.638461538461,-1,0.06999999999999318,0.08955555555555558,0.45999999999999375,0.18522222222221907,0.09566666666666349,0.2747777777777747,1,1,1,WAIT
487,2223.0,129.78,129.83,129.833,129.919,129.82,9198.638461538461,-1,0.05000000000001137,0.08955555555555558,0.45999999999999375,0.18522222222221907,0.09566666666666349,0.2747777777777747,1,-1,-1,WAIT
488,598.0,129.75,129.8,129.755,129.832,129.8,9198.638461538461,-1,0.05000000000001137,0.08955555555555558,0.45999999999999375,0.18522222222221907,0.09566666666666349,0.2747777777777747,1,0,0,WAIT
489,2331.0,129.6,129.73,129.661,129.74,129.62,9198.638461538461,-1,0.12999999999999545,0.08955555555555558,0.45999999999999375,0.18522222222221907,0.09566666666666349,0.2747777777777747,0,-1,-2,WAIT
490,1363.0,129.59,129.68,129.508,129.587,129.63,9198.638461538461,-1,0.09000000000000341,0.08955555555555558,0.45999999999999375,0.18522222222221907,0.09566666666666349,0.2747777777777747,1,1,1,WAIT
491,968.0,129.78,129.82,129.607,129.672,129.82,9198.638461538461,-1,0.03999999999999204,0.08955555555555558,0.45999999999999375,0.18522222222221907,0.09566666666666349,0.2747777777777747,1,1,1,WAIT
492,2449.0,129.85,129.89,129.841,129.9,129.84,9198.638461538461,-1,0.03999999999999204,0.08955555555555558,0.45999999999999375,0.18522222222221907,0.09566666666666349,0.2747777777777747,1,-1,-1,WAIT
493,1723.0,129.78,129.84,129.741,129.805,129.78,9198.638461538461,-1,0.060000000000002274,0.08955555555555558,0.45999999999999375,0.18522222222221907,0.09566666666666349,0.2747777777777747,1,0,0,WAIT
494,1120.0,129.74,129.78,129.83,129.895,129.8,9198.638461538461,-1,0.03999999999999204,0.08955555555555558,0.45999999999999375,0.18522222222221907,0.09566666666666349,0.2747777777777747,1,-1,-1,WAIT
495,1411.0,129.61,129.68,129.725,129.79,129.73,9198.638461538461,-1,0.06999999999999318,0.08955555555555558,0.45999999999999375,0.18522222222221907,0.09566666666666349,0.2747777777777747,1,0,0,WAIT
496,2047.0,129.4,129.45,129.449,129.517,129.44,9198.638461538461,-1,0.04999999999998295,0.08955555555555558,0.45999999999999375,0.18522222222221907,0.09566666666666349,0.2747777777777747,1,-1,-1,WAIT
497,2906.0,129.46,129.56,129.285,129.366,129.54,9198.638461538461,-1,0.09999999999999432,0.08955555555555558,0.45999999999999375,0.18522222222221907,0.09566666666666349,0.2747777777777747,0,1,0,WAIT
498,2600.0,129.56,129.64,129.575,129.649,129.69,9198.638461538461,-1,0.07999999999998408,0.08955555555555558,0.45999999999999375,0.18522222222221907,0.09566666666666349,0.2747777777777747,1,1,1,WAIT
499,1213.0,129.62,129.68,129.549,129.617,129.66,9198.638461538461,-1,0.060000000000002274,0.08955555555555558,0.45999999999999375,0.18522222222221907,0.09566666666666349,0.2747777777777747,1,1,1,WAIT
500,1819.0,129.83,129.89,129.77,129.832,129.89,9198.638461538461,-1,0.05999999999997385,0.08955555555555558,0.45999999999999375,0.18522222222221907,0.09566666666666349,0.2747777777777747,1,1,1,WAIT
501,1689.0,130.02,130.06,129.886,129.939,130.04,9198.638461538461,-1,0.03999999999999204,0.08955555555555558,0.45999999999999375,0.18522222222221907,0.09566666666666349,0.2747777777777747,1,1,1,WAIT
502,3485.0,130.08,130.15,130.096,130.145,130.14,9198.638461538461,-1,0.06999999999999318,0.08955555555555558,0.45999999999999375,0.18522222222221907,0.09566666666666349,0.2747777777777747,1,0,0,WAIT
503,1945.0,130.2,130.22,130.079,130.127,130.19,9198.638461538461,-1,0.020000000000010232,0.08955555555555558,0.45999999999999375,0.18522222222221907,0.09566666666666349,0.2747777777777747,1,1,1,WAIT
504,5993.0,130.27,130.29,130.297,130.332,130.27,9198.638461538461,0,0.01999999999998181,0.08955555555555558,0.45999999999999375,0.18522222222221907,0.09566666666666349,0.2747777777777747,1,-1,0,WAIT
505,8461.0,130.55,130.6,130.486,130.516,130.59,9198.638461538461,0,0.04999999999998295,0.08955555555555558,0.45999999999999375,0.18522222222221907,0.09566666666666349,0.2747777777777747,1,1,2,WAIT
506,44505.0,130.6,130.62,130.413,130.434,130.61,9198.638461538461,1,0.020000000000010232,0.08955555555555558,0.45999999999999375,0.18522222222221907,0.09566666666666349,0.2747777777777747,1,1,3,BUY
507,42536.0,130.5,130.64,130.788,131.021,130.78,9198.638461538461,1,0.13999999999998636,0.08955555555555558,0.45999999999999375,0.18522222222221907,0.09566666666666349,0.2747777777777747,0,-1,0,WAIT
508,7560.0,130.63,130.77,130.953,131.149,130.73,9198.638461538461,0,0.14000000000001478,0.08955555555555558,0.45999999999999375,0.18522222222221907,0.09566666666666349,0.2747777777777747,0,-1,-1,WAIT
509,3338.0,131.01,131.15,130.857,130.987,131.08,9198.638461538461,-1,0.14000000000001478,0.08955555555555558,0.45999999999999375,0.18522222222221907,0.09566666666666349,0.2747777777777747,0,1,0,WAIT
510,3102.0,130.93,131.02,130.981,131.074,130.95,9198.638461538461,-1,0.09000000000000341,0.08955555555555558,0.45999999999999375,0.18522222222221907,0.09566666666666349,0.2747777777777747,1,-1,-1,WAIT
511,3365.0,131.29,131.37,131.193,131.301,131.32,9198.638461538461,-1,0.0800000000000125,0.08955555555555558,0.45999999999999375,0.18522222222221907,0.09566666666666349,0.2747777777777747,1,1,1,WAIT
512,1474.0,131.73,131.85,131.551,131.663,131.58,9198.638461538461,-1,0.12000000000000455,0.08955555555555558,0.45999999999999375,0.18522222222221907,0.09566666666666349,0.2747777777777747,0,0,-1,WAIT
513,3411.0,131.51,131.6,131.771,131.864,131.62,9198.638461538461,-1,0.09000000000000341,0.08955555555555558,0.45999999999999375,0.18522222222221907,0.09566666666666349,0.2747777777777747,1,-1,-1,WAIT
514,2434.0,131.73,131.81,131.571,131.662,131.77,9198.638461538461,-1,0.0800000000000125,0.08955555555555558,0.45999999999999375,0.18522222222221907,0.09566666666666349,0.2747777777777747,1,1,1,WAIT
515,3610.0,131.24,131.3,131.41,131.49,131.24,9198.638461538461,-1,0.060000000000002274,0.08955555555555558,0.45999999999999375,0.18522222222221907,0.09566666666666349,0.2747777777777747,1,-1,-1,WAIT
516,2514.0,131.6,131.68,131.421,131.497,131.63,9198.638461538461,-1,0.0800000000000125,0.08955555555555558,0.45999999999999375,0.18522222222221907,0.09566666666666349,0.2747777777777747,1,1,1,WAIT
517,2337.0,131.55,131.62,131.552,131.627,131.56,9198.638461538461,-1,0.06999999999999318,0.08955555555555558,0.45999999999999375,0.18522222222221907,0.09566666666666349,0.2747777777777747,1,0,0,WAIT
518,1788.0,131.65,131.69,131.58,131.668,131.66,9198.638461538461,-1,0.03999999999999204,0.08955555555555558,0.45999999999999375,0.18522222222221907,0.09566666666666349,0.2747777777777747,1,0,0,WAIT
519,1971.0,131.88,131.95,131.682,131.76,131.65,9198.638461538461,-1,0.06999999999999318,0.08955555555555558,0.45999999999999375,0.18522222222221907,0.09566666666666349,0.2747777777777747,1,-1,-1,WAIT
520,2929.0,131.67,131.73,131.866,131.947,131.69,9198.638461538461,-1,0.060000000000002274,0.08955555555555558,0.45999999999999375,0.18522222222221907,0.09566666666666349,0.2747777777777747,1,-1,-1,WAIT
521,1040.0,131.99,132.04,131.924,132.003,132.14,9198.638461538461,-1,0.04999999999998295,0.08955555555555558,0.45999999999999375,0.18522222222221907,0.09566666666666349,0.2747777777777747,1,1,1,WAIT
522,1696.0,131.54,131.58,131.841,131.906,131.53,9198.638461538461,-1,0.040000000000020464,0.08955555555555558,0.45999999999999375,0.18522222222221907,0.09566666666666349,0.2747777777777747,1,-1,-1,WAIT
523,650.0,131.74,131.82,131.625,131.707,131.72,9198.638461538461,-1,0.07999999999998408,0.08955555555555558,0.45999999999999375,0.18522222222221907,0.09566666666666349,0.2747777777777747,1,1,1,WAIT
524,1641.0,131.69,131.79,131.614,131.69,131.67,9198.638461538461,-1,0.09999999999999432,0.08955555555555558,0.45999999999999375,0.18522222222221907,0.09566666666666349,0.2747777777777747,0,0,-1,WAIT
525,2092.0,131.59,131.67,131.608,131.672,131.64,9198.638461538461,-1,0.07999999999998408,0.08955555555555558,0.45999999999999375,0.18522222222221907,0.09566666666666349,0.2747777777777747,1,0,0,WAIT
526,1474.0,131.47,131.52,131.424,131.491,131.48,9198.638461538461,-1,0.05000000000001137,0.08955555555555558,0.45999999999999375,0.18522222222221907,0.09566666666666349,0.2747777777777747,1,0,0,WAIT
527,926.0,131.48,131.53,131.43,131.496,131.56,9198.638461538461,-1,0.05000000000001137,0.08955555555555558,0.45999999999999375,0.18522222222221907,0.09566666666666349,0.2747777777777747,1,1,1,WAIT
528,1269.0,131.42,131.52,131.465,131.537,131.54,9198.638461538461,-1,0.10000000000002274,0.08955555555555558,0.45999999999999375,0.18522222222221907,0.09566666666666349,0.2747777777777747,0,1,0,WAIT
529,1860.0,131.76,131.83,131.613,131.675,131.83,9198.638461538461,-1,0.0700000000000216,0.08955555555555558,0.45999999999999375,0.18522222222221907,0.09566666666666349,0.2747777777777747,1,1,1,WAIT
530,2204.0,131.8,131.85,131.733,131.792,131.77,9198.638461538461,-1,0.04999999999998295,0.08955555555555558,0.45999999999999375,0.18522222222221907,0.09566666666666349,0.2747777777777747,1,0,0,WAIT
531,2089.0,131.88,131.93,131.827,131.882,131.95,9198.638461538461,-1,0.05000000000001137,0.08955555555555558,0.45999999999999375,0.18522222222221907,0.09566666666666349,0.2747777777777747,1,1,1,WAIT
532,1968.0,132.23,132.3,132.116,132.167,132.28,9198.638461538461,-1,0.0700000000000216,0.08955555555555558,0.45999999999999375,0.18522222222221907,0.09566666666666349,0.2747777777777747,1,1,1,WAIT
533,3443.0,131.75,131.79,132.027,132.073,131.78,9198.638461538461,-1,0.03999999999999204,0.08955555555555558,0.45999999999999375,0.18522222222221907,0.09566666666666349,0.2747777777777747,1,-1,-1,WAIT
534,1787.0,131.32,131.38,131.584,131.632,131.39,9198.638461538461,-1,0.060000000000002274,0.08955555555555558,0.45999999999999375,0.18522222222221907,0.09566666666666349,0.2747777777777747,1,-1,-1,WAIT
535,3207.0,131.06,131.12,131.198,131.246,131.16,9198.638461538461,-1,0.060000000000002274,0.08955555555555558,0.45999999999999375,0.18522222222221907,0.09566666666666349,0.2747777777777747,1,-1,-1,WAIT
536,5092.0,130.79,130.86,130.932,130.984,130.89,9198.638461538461,0,0.0700000000000216,0.08955555555555558,0.45999999999999375,0.18522222222221907,0.09566666666666349,0.2747777777777747,1,-1,0,WAIT
537,808.0,130.98,131.03,130.904,130.954,131.03,9198.638461538461,-1,0.05000000000001137,0.08955555555555558,0.45999999999999375,0.18522222222221907,0.09566666666666349,0.2747777777777747,1,1,1,WAIT
538,4494.0,131.41,131.48,131.208,131.257,131.44,9198.638461538461,-1,0.06999999999999318,0.08955555555555558,0.45999999999999375,0.18522222222221907,0.09566666666666349,0.2747777777777747,1,1,1,WAIT
539,2163.0,131.64,131.68,131.503,131.55,131.6,9198.638461538461,-1,0.040000000000020464,0.08955555555555558,0.45999999999999375,0.18522222222221907,0.09566666666666349,0.2747777777777747,1,1,1,WAIT
540,2677.0,131.59,131.6,131.617,131.66,131.57,9198.638461538461,-1,0.009999999999990905,0.08955555555555558,0.45999999999999375,0.18522222222221907,0.09566666666666349,0.2747777777777747,1,-1,-1,WAIT
541,2270.0,131.79,131.84,131.723,131.765,131.84,9198.638461538461,-1,0.05000000000001137,0.08955555555555558,0.45999999999999375,0.18522222222221907,0.09566666666666349,0.2747777777777747,1,1,1,WAIT
542,3681.0,131.91,131.96,131.832,131.874,131.93,9198.638461538461,-1,0.05000000000001137,0.08955555555555558,0.45999999999999375,0.18522222222221907,0.09566666666666349,0.2747777777777747,1,1,1,WAIT
543,5390.0,131.78,131.82,131.7,131.731,131.74,9198.638461538461,0,0.03999999999999204,0.08955555555555558,0.45999999999999375,0.18522222222221907,0.09566666666666349,0.2747777777777747,1,1,2,WAIT
544,7389.0,131.67,131.71,131.804,131.833,131.77,9198.638461538461,0,0.040000000000020464,0.08955555555555558,0.45999999999999375,0.18522222222221907,0.09566666666666349,0.2747777777777747,1,-1,0,WAIT
545,108224.0,132.05,132.08,131.89,131.916,132.06,9198.638461538461,1,0.030000000000001137,0.08955555555555558,0.45999999999999375,0.18522222222221907,0.09566666666666349,0.2747777777777747,1,1,3,BUY
546,46075.0,130.7,130.89,130.746,131.042,130.84,9198.638461538461,1,0.18999999999999773,0.08955555555555558,0.45999999999999375,0.18522222222221907,0.09566666666666349,0.2747777777777747,0,0,1,WAIT
547,3365.0,130.93,131.11,130.858,131.036,131.08,9198.638461538461,-1,0.18000000000000682,0.08955555555555558,0.45999999999999375,0.18522222222221907,0.09566666666666349,0.2747777777777747,0,1,0,WAIT
548,3442.0,129.6,129.73,130.124,130.331,129.83,9198.638461538461,-1,0.12999999999999545,0.08955555555555558,0.45999999999999375,0.18522222222221907,0.09566666666666349,0.2747777777777747,0,-1,-2,WAIT
549,4498.0,129.15,129.38,129.588,129.769,129.4,9198.638461538461,-1,0.22999999999998977,0.08955555555555558,0.45999999999999375,0.18522222222221907,0.09566666666666349,0.2747777777777747,0,-1,-2,WAIT
550,4122.0,128.47,128.63,128.919,129.077,128.49,9198.638461538461,-1,0.1599999999999966,0.08955555555555558,0.45999999999999375,0.18522222222221907,0.09566666666666349,0.2747777777777747,0,-1,-2,WAIT
551,2405.0,128.2,128.37,128.365,128.517,128.32,9198.638461538461,-1,0.17000000000001592,0.08955555555555558,0.45999999999999375,0.18522222222221907,0.09566666666666349,0.2747777777777747,0,-1,-2,WAIT
552,2959.0,128.86,128.95,128.449,128.571,128.87,9198.638461538461,-1,0.08999999999997499,0.08955555555555558,0.45999999999999375,0.18522222222221907,0.09566666666666349,0.2747777777777747,1,1,1,WAIT
553,2520.0,128.69,128.82,128.612,128.732,128.74,9198.638461538461,-1,0.12999999999999545,0.08955555555555558,0.45999999999999375,0.18522222222221907,0.09566666666666349,0.2747777777777747,0,1,0,WAIT
554,3234.0,128.66,128.75,128.67,128.767,128.68,9198.638461538461,-1,0.09000000000000341,0.08955555555555558,0.45999999999999375,0.18522222222221907,0.09566666666666349,0.2747777777777747,1,0,0,WAIT
555,3686.0,128.19,128.3,128.447,128.565,128.2,9198.638461538461,-1,0.11000000000001364,0.08955555555555558,0.45999999999999375,0.18522222222221907,0.09566666666666349,0.2747777777777747,0,-1,-2,WAIT
556,1498.0,128.45,128.6,128.183,128.285,128.08,9198.638461538461,-1,0.15000000000000568,0.08955555555555558,0.45999999999999375,0.18522222222221907,0.09566666666666349,0.2747777777777747,0,-1,-2,WAIT
557,2521.0,128.77,128.9,128.673,128.774,128.8,9198.638461538461,-1,0.12999999999999545,0.08955555555555558,0.45999999999999375,0.18522222222221907,0.09566666666666349,0.2747777777777747,0,1,0,WAIT
558,1982.0,128.73,128.87,128.777,128.865,128.86,9198.638461538461,-1,0.14000000000001478,0.08955555555555558,0.45999999999999375,0.18522222222221907,0.09566666666666349,0.2747777777777747,0,0,-1,WAIT
559,1872.0,128.53,128.63,128.619,128.708,128.62,9198.638461538461,-1,0.09999999999999432,0.08955555555555558,0.45999999999999375,0.18522222222221907,0.09566666666666349,0.2747777777777747,0,0,-1,WAIT
560,1270.0,127.96,128.03,128.24,128.327,128.03,9198.638461538461,-1,0.07000000000000739,0.08955555555555558,0.45999999999999375,0.18522222222221907,0.09566666666666349,0.2747777777777747,1,-1,-1,WAIT
561,1381.0,127.88,127.96,127.728,127.819,127.99,9198.638461538461,-1,0.0799999999999983,0.08955555555555558,0.45999999999999375,0.18522222222221907,0.09566666666666349,0.2747777777777747,1,1,1,WAIT
562,900.0,127.82,127.91,127.943,128.029,127.89,9198.638461538461,-1,0.09000000000000341,0.08955555555555558,0.45999999999999375,0.18522222222221907,0.09566666666666349,0.2747777777777747,1,-1,-1,WAIT
563,2162.0,128.1,128.19,127.953,128.031,128.13,9198.638461538461,-1,0.09000000000000341,0.08955555555555558,0.45999999999999375,0.18522222222221907,0.09566666666666349,0.2747777777777747,1,1,1,WAIT
564,1225.0,128.44,128.53,128.312,128.389,128.49,9198.638461538461,-1,0.09000000000000341,0.08955555555555558,0.45999999999999375,0.18522222222221907,0.09566666666666349,0.2747777777777747,1,1,1,WAIT
565,1787.0,128.47,128.53,128.337,128.415,128.5,9198.638461538461,-1,0.060000000000002274,0.08955555555555558,0.45999999999999375,0.18522222222221907,0.09566666666666349,0.2747777777777747,1,1,1,WAIT
566,1963.0,128.66,128.76,128.597,128.663,128.77,9198.638461538461,-1,0.09999999999999432,0.08955555555555558,0.45999999999999375,0.18522222222221907,0.09566666666666349,0.2747777777777747,0,1,0,WAIT
567,3057.0,128.86,128.93,128.901,128.976,128.92,9198.638461538461,-1,0.06999999999999318,0.08955555555555558,0.45999999999999375,0.18522222222221907,0.09566666666666349,0.2747777777777747,1,0,0,WAIT
568,2755.0,128.56,128.62,128.748,128.816,128.68,9198.638461538461,-1,0.060000000000002274,0.08955555555555558,0.45999999999999375,0.18522222222221907,0.09566666666666349,0.2747777777777747,1,-1,-1,WAIT
569,2959.0,128.45,128.52,128.407,128.477,128.51,9198.638461538461,-1,0.0700000000000216,0.08955555555555558,0.45999999999999375,0.18522222222221907,0.09566666666666349,0.2747777777777747,1,1,1,WAIT
570,2782.0,128.21,128.27,128.33,128.406,128.3,9198.638461538461,-1,0.060000000000002274,0.08955555555555558,0.45999999999999375,0.18522222222221907,0.09566666666666349,0.2747777777777747,1,-1,-1,WAIT
571,2976.0,128.42,128.52,128.21,128.28,128.54,9198.638461538461,-1,0.10000000000002274,0.08955555555555558,0.45999999999999375,0.18522222222221907,0.09566666666666349,0.2747777777777747,0,1,0,WAIT
572,3356.0,128.62,128.67,128.501,128.572,128.58,9198.638461538461,-1,0.04999999999998295,0.08955555555555558,0.45999999999999375,0.18522222222221907,0.09566666666666349,0.2747777777777747,1,1,1,WAIT
573,3250.0,128.21,128.27,128.284,128.353,128.22,9198.638461538461,-1,0.060000000000002274,0.08955555555555558,0.45999999999999375,0.18522222222221907,0.09566666666666349,0.2747777777777747,1,-1,-1,WAIT
574,2619.0,128.08,128.16,128.006,128.078,128.07,9198.638461538461,-1,0.07999999999998408,0.08955555555555558,0.45999999999999375,0.18522222222221907,0.09566666666666349,0.2747777777777747,1,0,0,WAIT
575,3105.0,128.16,128.24,128.081,128.155,128.26,9198.638461538461,-1,0.0800000000000125,0.08955555555555558,0.45999999999999375,0.18522222222221907,0.09566666666666349,0.2747777777777747,1,1,1,WAIT
576,2587.0,128.76,128.8,128.498,128.562,128.68,9198.638461538461,-1,0.040000000000020464,0.08955555555555558,0.45999999999999375,0.18522222222221907,0.09566666666666349,0.2747777777777747,1,1,1,WAIT
577,5418.0,128.6,128.67,128.806,128.864,128.69,9198.638461538461,0,0.06999999999999318,0.08955555555555558,0.45999999999999375,0.18522222222221907,0.09566666666666349,0.2747777777777747,1,-1,0,WAIT
578,5492.0,128.43,128.48,128.555,128.612,128.45,9198.638461538461,0,0.04999999999998295,0.08955555555555558,0.45999999999999375,0.18522222222221907,0.09566666666666349,0.2747777777777747,1,-1,0,WAIT
579,4160.0,128.1,128.14,128.291,128.352,128.14,9198.638461538461,-1,0.03999999999999204,0.08955555555555558,0.45999999999999375,0.18522222222221907,0.09566666666666349,0.2747777777777747,1,-1,-1,WAIT
580,7362.0,127.75,127.81,127.883,127.94,127.77,9198.638461538461,0,0.060000000000002274,0.08955555555555558,0.45999999999999375,0.18522222222221907,0.09566666666666349,0.2747777777777747,1,-1,0,WAIT
581,8163.0,127.21,127.23,127.478,127.525,127.21,9198.638461538461,0,0.020000000000010232,0.08955555555555558,0.45999999999999375,0.18522222222221907,0.09566666666666349,0.2747777777777747,1,-1,0,WAIT
582,11748.0,127.28,127.32,127.239,127.28,127.31,9198.638461538461,0,0.03999999999999204,0.08955555555555558,0.45999999999999375,0.18522222222221907,0.09566666666666349,0.2747777777777747,1,1,2,WAIT
583,15132.0,127.27,127.36,127.152,127.186,127.36,9198.638461538461,1,0.09000000000000341,0.08955555555555558,0.45999999999999375,0.18522222222221907,0.09566666666666349,0.2747777777777747,1,1,3,BUY
584,63544.0,127.38,127.39,127.4,127.428,127.39,9198.638461538461,1,0.010000000000005116,0.08955555555555558,0.45999999999999375,0.18522222222221907,0.09566666666666349,0.2747777777777747,1,-1,1,WAIT
585,28694.0,128.08,128.29,127.548,127.889,128.36,9198.638461538461,1,0.20999999999997954,0.08955555555555558,0.45999999999999375,0.18522222222221907,0.09566666666666349,0.2747777777777747,0,1,2,WAIT
586,1788.0,128.12,128.5,127.891,128.205,127.94,9198.638461538461,-1,0.37999999999999545,0.08955555555555558,0.45999999999999375,0.18522222222221907,0.09566666666666349,0.2747777777777747,-1,0,-2,WAIT
587,200.0,128.02,128.26,128.069,128.271,127.98,9198.638461538461,-1,0.23999999999998067,0.08955555555555558,0.45999999999999375,0.18522222222221907,0.09566666666666349,0.2747777777777747,0,-1,-2,WAIT
588,801.0,128.1,128.23,128.18,128.386,128.34,9198.638461538461,-1,0.12999999999999545,0.08955555555555558,0.45999999999999375,0.18522222222221907,0.09566666666666349,0.2747777777777747,0,0,-1,WAIT
589,517.0,128.54,128.67,128.327,128.491,128.55,9198.638461538461,-1,0.12999999999999545,0.08955555555555558,0.45999999999999375,0.18522222222221907,0.09566666666666349,0.2747777777777747,0,1,0,WAIT
590,1116.0,128.38,128.51,128.468,128.602,128.45,9198.638461538461,-1,0.12999999999999545,0.08955555555555558,0.45999999999999375,0.18522222222221907,0.09566666666666349,0.2747777777777747,0,-1,-2,WAIT
591,2791.0,128.39,128.51,128.399,128.507,128.43,9198.638461538461,-1,0.12000000000000455,0.08955555555555558,0.45999999999999375,0.18522222222221907,0.09566666666666349,0.2747777777777747,0,0,-1,WAIT
592,1284.0,127.97,128.11,128.105,128.208,128.09,9198.638461538461,-1,0.14000000000001478,0.08955555555555558,0.45999999999999375,0.18522222222221907,0.09566666666666349,0.2747777777777747,0,-1,-2,WAIT
593,1013.0,127.95,128.2,128.158,128.264,128.13,9198.638461538461,-1,0.2499999999999858,0.08955555555555558,0.45999999999999375,0.18522222222221907,0.09566666666666349,0.2747777777777747,0,-1,-2,WAIT
594,2516.0,127.78,127.87,127.615,127.778,127.64,9198.638461538461,-1,0.09000000000000341,0.08955555555555558,0.45999999999999375,0.18522222222221907,0.09566666666666349,0.2747777777777747,1,0,0,WAIT
595,1422.0,127.97,128.07,127.947,128.047,128.03,9198.638461538461,-1,0.09999999999999432,0.08955555555555558,0.45999999999999375,0.18522222222221907,0.09566666666666349,0.2747777777777747,0,0,-1,WAIT
596,2706.0,128.03,128.11,127.979,128.069,128.09,9198.638461538461,-1,0.0800000000000125,0.08955555555555558,0.45999999999999375,0.18522222222221907,0.09566666666666349,0.2747777777777747,1,1,1,WAIT
597,2059.0,128.07,128.14,128.182,128.266,128.15,9198.638461538461,-1,0.06999999999999318,0.08955555555555558,0.45999999999999375,0.18522222222221907,0.09566666666666349,0.2747777777777747,1,-1,-1,WAIT
598,1543.0,128.5,128.56,128.188,128.266,128.51,9198.638461538461,-1,0.060000000000002274,0.08955555555555558,0.45999999999999375,0.18522222222221907,0.09566666666666349,0.2747777777777747,1,1,1,WAIT
599,2908.0,128.15,128.21,128.346,128.417,128.22,9198.638461538461,-1,0.060000000000002274,0.08955555555555558,0.45999999999999375,0.18522222222221907,0.09566666666666349,0.2747777777777747,1,-1,-1,WAIT
600,4205.0,128.21,128.28,128.254,128.322,128.29,9198.638461538461,-1,0.06999999999999318,0.08955555555555558,0.45999999999999375,0.18522222222221907,0.09566666666666349,0.2747777777777747,1,0,0,WAIT
601,1331.0,128.19,128.24,128.134,128.208,128.2,9198.638461538461,-1,0.05000000000001137,0.08955555555555558,0.45999999999999375,0.18522222222221907,0.09566666666666349,0.2747777777777747,1,0,0,WAIT
602,2920.0,127.96,128.03,128.153,128.211,128.09,9198.638461538461,-1,0.07000000000000739,0.08955555555555558,0.45999999999999375,0.18522222222221907,0.09566666666666349,0.2747777777777747,1,-1,-1,WAIT
